# OpenSignals Text File Format
# {"00:80:E1:26:9E:1A":{"sensor":["ECG"],"device name":"00:80:E1:26:9E:1A","column":["nSeq","ECG"],"sync interval":2,"time":"11:07:03","comments":"","keywords":"","device connection":"BLE00:80:E1:26:9E:1A","channels":[0],"date":"2025-06-06","mode":0,"digital IO":[],"firmware version":256,"device":"cardiobanplux","position":0,"sampling rate":1000,"label":["ECG"],"resolution":[16],"special":[{}],"sleeve color":["UNKNOWN"]}}
# EndOfHeader
0	15176	
1	15223	
2	15258	
3	15274	
4	15303	
5	15383	
6	15522	
7	15684	
8	15808	
9	15853	
10	15822	
11	15761	
12	15719	
13	15710	
14	15696	
15	15626	
16	15485	
17	15312	
18	15179	
19	15135	
20	15172	
21	15236	
22	15276	
23	15283	
24	15296	
25	15359	
26	15482	
27	15624	
28	15725	
29	15749	
30	15705	
31	15642	
32	15601	
33	15584	
34	15559	
35	15486	
36	15363	
37	15232	
38	15149	
39	15142	
40	15187	
41	15237	
42	15260	
43	15265	
44	15294	
45	15381	
46	15527	
47	15692	
48	15820	
49	15870	
50	15842	
51	15767	
52	15690	
53	15641	
54	15617	
55	15586	
56	15517	
57	15406	
58	15285	
59	15201	
60	15185	
61	15229	
62	15297	
63	15354	
64	15393	
65	15438	
66	15513	
67	15628	
68	15758	
69	15863	
70	15910	
71	15887	
72	15813	
73	15724	
74	15639	
75	15557	
76	15456	
77	15320	
78	15173	
79	15064	
80	15042	
81	15111	
82	15229	
83	15334	
84	15400	
85	15450	
86	15532	
87	15664	
88	15809	
89	15905	
90	15911	
91	15844	
92	15757	
93	15692	
94	15647	
95	15589	
96	15497	
97	15388	
98	15299	
99	15254	
100	15244	
101	15247	
102	15258	
103	15298	
104	15393	
105	15540	
106	15704	
107	15837	
108	15916	
109	15951	
110	15963	
111	15959	
112	15924	
113	15837	
114	15703	
115	15552	
116	15425	
117	15341	
118	15294	
119	15262	
120	15236	
121	15223	
122	15245	
123	15309	
124	15402	
125	15497	
126	15575	
127	15636	
128	15693	
129	15754	
130	15808	
131	15832	
132	15808	
133	15736	
134	15632	
135	15518	
136	15400	
137	15281	
138	15165	
139	15069	
140	15019	
141	15028	
142	15080	
143	15141	
144	15183	
145	15208	
146	15241	
147	15305	
148	15398	
149	15486	
150	15528	
151	15504	
152	15428	
153	15336	
154	15262	
155	15211	
156	15160	
157	15081	
158	14974	
159	14864	
160	14789	
161	14772	
162	14801	
163	14846	
164	14883	
165	14912	
166	14956	
167	15036	
168	15151	
169	15270	
170	15352	
171	15365	
172	15314	
173	15228	
174	15144	
175	15086	
176	15053	
177	15028	
178	14996	
179	14960	
180	14937	
181	14956	
182	15034	
183	15160	
184	15299	
185	15411	
186	15473	
187	15500	
188	15531	
189	15599	
190	15697	
191	15781	
192	15800	
193	15739	
194	15633	
195	15546	
196	15525	
197	15566	
198	15619	
199	15627	
200	15576	
201	15511	
202	15505	
203	15603	
204	15784	
205	15964	
206	16058	
207	16046	
208	15981	
209	15947	
210	15986	
211	16058	
212	16079	
213	15994	
214	15828	
215	15670	
216	15598	
217	15610	
218	15630	
219	15577	
220	15438	
221	15289	
222	15230	
223	15303	
224	15452	
225	15568	
226	15579	
227	15506	
228	15442	
229	15466	
230	15570	
231	15656	
232	15623	
233	15451	
234	15224	
235	15068	
236	15046	
237	15115	
238	15161	
239	15104	
240	14963	
241	14845	
242	14851	
243	14987	
244	15159	
245	15250	
246	15216	
247	15121	
248	15075	
249	15143	
250	15282	
251	15383	
252	15358	
253	15212	
254	15033	
255	14918	
256	14895	
257	14913	
258	14898	
259	14825	
260	14737	
261	14704	
262	14761	
263	14876	
264	14986	
265	15041	
266	15044	
267	15034	
268	15050	
269	15096	
270	15145	
271	15165	
272	15145	
273	15101	
274	15059	
275	15029	
276	15003	
277	14966	
278	14917	
279	14879	
280	14883	
281	14948	
282	15056	
283	15165	
284	15239	
285	15271	
286	15293	
287	15341	
288	15426	
289	15515	
290	15560	
291	15531	
292	15445	
293	15354	
294	15305	
295	15306	
296	15324	
297	15312	
298	15255	
299	15179	
300	15131	
301	15145	
302	15212	
303	15295	
304	15354	
305	15380	
306	15396	
307	15435	
308	15506	
309	15583	
310	15627	
311	15615	
312	15558	
313	15486	
314	15426	
315	15387	
316	15356	
317	15314	
318	15250	
319	15176	
320	15123	
321	15128	
322	15206	
323	15334	
324	15457	
325	15522	
326	15517	
327	15478	
328	15459	
329	15485	
330	15530	
331	15541	
332	15487	
333	15389	
334	15303	
335	15268	
336	15274	
337	15271	
338	15221	
339	15134	
340	15060	
341	15043	
342	15085	
343	15156	
344	15224	
345	15282	
346	15343	
347	15411	
348	15473	
349	15504	
350	15494	
351	15460	
352	15431	
353	15422	
354	15421	
355	15405	
356	15366	
357	15318	
358	15281	
359	15262	
360	15250	
361	15236	
362	15228	
363	15253	
364	15322	
365	15415	
366	15488	
367	15511	
368	15495	
369	15479	
370	15490	
371	15510	
372	15496	
373	15422	
374	15312	
375	15220	
376	15186	
377	15197	
378	15205	
379	15170	
380	15100	
381	15040	
382	15032	
383	15076	
384	15139	
385	15183	
386	15196	
387	15198	
388	15211	
389	15239	
390	15255	
391	15232	
392	15157	
393	15054	
394	14962	
395	14914	
396	14911	
397	14923	
398	14906	
399	14843	
400	14761	
401	14712	
402	14735	
403	14820	
404	14918	
405	14975	
406	14978	
407	14959	
408	14965	
409	15014	
410	15077	
411	15104	
412	15064	
413	14981	
414	14908	
415	14884	
416	14899	
417	14904	
418	14859	
419	14779	
420	14724	
421	14751	
422	14856	
423	14980	
424	15058	
425	15077	
426	15085	
427	15139	
428	15251	
429	15370	
430	15428	
431	15393	
432	15300	
433	15219	
434	15191	
435	15202	
436	15191	
437	15118	
438	15001	
439	14906	
440	14893	
441	14967	
442	15078	
443	15173	
444	15240	
445	15314	
446	15429	
447	15578	
448	15705	
449	15753	
450	15715	
451	15642	
452	15599	
453	15610	
454	15638	
455	15621	
456	15527	
457	15385	
458	15265	
459	15221	
460	15252	
461	15317	
462	15375	
463	15419	
464	15474	
465	15563	
466	15675	
467	15768	
468	15801	
469	15773	
470	15727	
471	15709	
472	15729	
473	15749	
474	15715	
475	15613	
476	15478	
477	15368	
478	15310	
479	15279	
480	15237	
481	15182	
482	15162	
483	15226	
484	15366	
485	15514	
486	15592	
487	15582	
488	15536	
489	15525	
490	15571	
491	15628	
492	15631	
493	15550	
494	15421	
495	15307	
496	15242	
497	15208	
498	15164	
499	15090	
500	15017	
501	14993	
502	15041	
503	15132	
504	15213	
505	15252	
506	15265	
507	15301	
508	15387	
509	15502	
510	15586	
511	15588	
512	15516	
513	15425	
514	15372	
515	15366	
516	15364	
517	15319	
518	15232	
519	15159	
520	15160	
521	15246	
522	15367	
523	15456	
524	15490	
525	15505	
526	15554	
527	15653	
528	15767	
529	15837	
530	15833	
531	15773	
532	15706	
533	15667	
534	15657	
535	15648	
536	15613	
537	15548	
538	15470	
539	15407	
540	15374	
541	15373	
542	15397	
543	15444	
544	15510	
545	15594	
546	15683	
547	15761	
548	15813	
549	15830	
550	15818	
551	15789	
552	15758	
553	15733	
554	15717	
555	15697	
556	15658	
557	15589	
558	15497	
559	15409	
560	15353	
561	15345	
562	15377	
563	15427	
564	15475	
565	15519	
566	15570	
567	15639	
568	15726	
569	15805	
570	15848	
571	15839	
572	15791	
573	15732	
574	15689	
575	15664	
576	15641	
577	15596	
578	15520	
579	15429	
580	15358	
581	15349	
582	15422	
583	15555	
584	15699	
585	15800	
586	15843	
587	15852	
588	15870	
589	15916	
590	15975	
591	16005	
592	15978	
593	15899	
594	15809	
595	15747	
596	15728	
597	15729	
598	15713	
599	15663	
600	15593	
601	15542	
602	15543	
603	15599	
604	15681	
605	15754	
606	15804	
607	15850	
608	15919	
609	16018	
610	16117	
611	16163	
612	16133	
613	16052	
614	15979	
615	15962	
616	15992	
617	16018	
618	15990	
619	15911	
620	15840	
621	15847	
622	15953	
623	16109	
624	16230	
625	16264	
626	16227	
627	16192	
628	16221	
629	16319	
630	16432	
631	16489	
632	16464	
633	16387	
634	16314	
635	16282	
636	16280	
637	16265	
638	16203	
639	16105	
640	16019	
641	16003	
642	16069	
643	16176	
644	16254	
645	16264	
646	16225	
647	16197	
648	16229	
649	16314	
650	16394	
651	16408	
652	16338	
653	16223	
654	16116	
655	16043	
656	15989	
657	15922	
658	15831	
659	15739	
660	15675	
661	15655	
662	15665	
663	15679	
664	15680	
665	15674	
666	15681	
667	15718	
668	15783	
669	15847	
670	15872	
671	15840	
672	15764	
673	15677	
674	15604	
675	15542	
676	15472	
677	15385	
678	15300	
679	15256	
680	15272	
681	15334	
682	15398	
683	15436	
684	15450	
685	15472	
686	15528	
687	15613	
688	15693	
689	15729	
690	15709	
691	15652	
692	15587	
693	15535	
694	15499	
695	15470	
696	15442	
697	15417	
698	15399	
699	15387	
700	15377	
701	15371	
702	15382	
703	15425	
704	15503	
705	15595	
706	15675	
707	15731	
708	15776	
709	15828	
710	15887	
711	15923	
712	15906	
713	15836	
714	15757	
715	15718	
716	15733	
717	15759	
718	15741	
719	15658	
720	15555	
721	15507	
722	15555	
723	15671	
724	15788	
725	15859	
726	15904	
727	15980	
728	16117	
729	16271	
730	16353	
731	16306	
732	16160	
733	16014	
734	15952	
735	15972	
736	15996	
737	15948	
738	15830	
739	15725	
740	15720	
741	15830	
742	15984	
743	16086	
744	16097	
745	16059	
746	16054	
747	16126	
748	16243	
749	16328	
750	16324	
751	16246	
752	16160	
753	16129	
754	16155	
755	16177	
756	16123	
757	15974	
758	15791	
759	15667	
760	15651	
761	15709	
762	15750	
763	15718	
764	15645	
765	15644	
766	15813	
767	16154	
768	16560	
769	16898	
770	17098	
771	17197	
772	17288	
773	17439	
774	17641	
775	17832	
776	17956	
777	18017	
778	18076	
779	18207	
780	18446	
781	18775	
782	19139	
783	19499	
784	19852	
785	20232	
786	20664	
787	21124	
788	21537	
789	21807	
790	21880	
791	21781	
792	21596	
793	21417	
794	21275	
795	21120	
796	20870	
797	20486	
798	20024	
799	19601	
800	19305	
801	19123	
802	18938	
803	18614	
804	18103	
805	17490	
806	16926	
807	16527	
808	16295	
809	16140	
810	15970	
811	15764	
812	15573	
813	15449	
814	15382	
815	15301	
816	15132	
817	14878	
818	14627	
819	14497	
820	14545	
821	14719	
822	14895	
823	14963	
824	14911	
825	14821	
826	14802	
827	14901	
828	15071	
829	15214	
830	15259	
831	15204	
832	15108	
833	15038	
834	15018	
835	15030	
836	15035	
837	15002	
838	14931	
839	14849	
840	14797	
841	14813	
842	14901	
843	15023	
844	15120	
845	15153	
846	15133	
847	15120	
848	15169	
849	15279	
850	15389	
851	15428	
852	15372	
853	15266	
854	15185	
855	15162	
856	15165	
857	15132	
858	15040	
859	14942	
860	14925	
861	15036	
862	15225	
863	15381	
864	15420	
865	15354	
866	15281	
867	15298	
868	15420	
869	15566	
870	15629	
871	15570	
872	15445	
873	15353	
874	15350	
875	15400	
876	15415	
877	15338	
878	15198	
879	15087	
880	15079	
881	15171	
882	15286	
883	15343	
884	15327	
885	15293	
886	15314	
887	15414	
888	15551	
889	15655	
890	15683	
891	15645	
892	15589	
893	15556	
894	15548	
895	15537	
896	15493	
897	15411	
898	15320	
899	15259	
900	15253	
901	15296	
902	15367	
903	15442	
904	15515	
905	15589	
906	15667	
907	15738	
908	15789	
909	15811	
910	15818	
911	15834	
912	15873	
913	15922	
914	15945	
915	15916	
916	15841	
917	15765	
918	15735	
919	15765	
920	15824	
921	15865	
922	15868	
923	15854	
924	15869	
925	15938	
926	16045	
927	16148	
928	16212	
929	16228	
930	16211	
931	16178	
932	16141	
933	16100	
934	16051	
935	15991	
936	15923	
937	15854	
938	15797	
939	15761	
940	15744	
941	15738	
942	15737	
943	15744	
944	15777	
945	15848	
946	15951	
947	16057	
948	16127	
949	16136	
950	16092	
951	16026	
952	15972	
953	15939	
954	15909	
955	15854	
956	15759	
957	15642	
958	15543	
959	15497	
960	15510	
961	15551	
962	15581	
963	15584	
964	15577	
965	15597	
966	15657	
967	15733	
968	15774	
969	15751	
970	15683	
971	15623	
972	15618	
973	15658	
974	15683	
975	15629	
976	15490	
977	15322	
978	15206	
979	15182	
980	15221	
981	15258	
982	15252	
983	15212	
984	15191	
985	15229	
986	15321	
987	15418	
988	15467	
989	15448	
990	15393	
991	15350	
992	15351	
993	15374	
994	15365	
995	15284	
996	15142	
997	14995	
998	14905	
999	14891	
1000	14923	
1001	14952	
1002	14949	
1003	14933	
1004	14945	
1005	15012	
1006	15123	
1007	15232	
1008	15295	
1009	15300	
1010	15273	
1011	15253	
1012	15257	
1013	15265	
1014	15241	
1015	15164	
1016	15057	
1017	14963	
1018	14921	
1019	14929	
1020	14957	
1021	14971	
1022	14967	
1023	14973	
1024	15021	
1025	15120	
1026	15238	
1027	15331	
1028	15370	
1029	15367	
1030	15355	
1031	15364	
1032	15387	
1033	15393	
1034	15351	
1035	15260	
1036	15159	
1037	15092	
1038	15078	
1039	15099	
1040	15116	
1041	15106	
1042	15087	
1043	15096	
1044	15157	
1045	15257	
1046	15360	
1047	15434	
1048	15477	
1049	15510	
1050	15552	
1051	15600	
1052	15634	
1053	15639	
1054	15624	
1055	15613	
1056	15623	
1057	15641	
1058	15642	
1059	15611	
1060	15568	
1061	15552	
1062	15590	
1063	15680	
1064	15792	
1065	15900	
1066	15997	
1067	16097	
1068	16207	
1069	16311	
1070	16375	
1071	16373	
1072	16313	
1073	16238	
1074	16197	
1075	16206	
1076	16234	
1077	16228	
1078	16162	
1079	16070	
1080	16018	
1081	16060	
1082	16186	
1083	16327	
1084	16411	
1085	16413	
1086	16378	
1087	16372	
1088	16431	
1089	16526	
1090	16589	
1091	16568	
1092	16474	
1093	16368	
1094	16308	
1095	16303	
1096	16303	
1097	16251	
1098	16132	
1099	16001	
1100	15936	
1101	15976	
1102	16091	
1103	16198	
1104	16228	
1105	16179	
1106	16115	
1107	16114	
1108	16202	
1109	16330	
1110	16408	
1111	16377	
1112	16256	
1113	16134	
1114	16092	
1115	16134	
1116	16177	
1117	16120	
1118	15937	
1119	15712	
1120	15577	
1121	15604	
1122	15742	
1123	15866	
1124	15883	
1125	15817	
1126	15775	
1127	15851	
1128	16028	
1129	16189	
1130	16220	
1131	16102	
1132	15929	
1133	15821	
1134	15826	
1135	15882	
1136	15887	
1137	15789	
1138	15628	
1139	15506	
1140	15491	
1141	15568	
1142	15659	
1143	15693	
1144	15667	
1145	15635	
1146	15654	
1147	15727	
1148	15807	
1149	15840	
1150	15806	
1151	15728	
1152	15644	
1153	15580	
1154	15533	
1155	15482	
1156	15413	
1157	15327	
1158	15246	
1159	15202	
1160	15210	
1161	15263	
1162	15334	
1163	15393	
1164	15430	
1165	15455	
1166	15489	
1167	15543	
1168	15612	
1169	15668	
1170	15683	
1171	15644	
1172	15567	
1173	15493	
1174	15455	
1175	15457	
1176	15468	
1177	15440	
1178	15355	
1179	15245	
1180	15178	
1181	15204	
1182	15314	
1183	15443	
1184	15524	
1185	15544	
1186	15551	
1187	15607	
1188	15721	
1189	15835	
1190	15870	
1191	15796	
1192	15662	
1193	15552	
1194	15518	
1195	15536	
1196	15536	
1197	15467	
1198	15343	
1199	15232	
1200	15198	
1201	15247	
1202	15334	
1203	15400	
1204	15423	
1205	15433	
1206	15479	
1207	15581	
1208	15711	
1209	15813	
1210	15843	
1211	15802	
1212	15726	
1213	15656	
1214	15615	
1215	15595	
1216	15579	
1217	15559	
1218	15538	
1219	15519	
1220	15502	
1221	15488	
1222	15486	
1223	15517	
1224	15589	
1225	15694	
1226	15803	
1227	15890	
1228	15945	
1229	15972	
1230	15978	
1231	15963	
1232	15921	
1233	15854	
1234	15776	
1235	15704	
1236	15644	
1237	15596	
1238	15552	
1239	15514	
1240	15490	
1241	15492	
1242	15528	
1243	15592	
1244	15666	
1245	15727	
1246	15765	
1247	15784	
1248	15801	
1249	15831	
1250	15874	
1251	15909	
1252	15906	
1253	15852	
1254	15763	
1255	15682	
1256	15648	
1257	15660	
1258	15683	
1259	15676	
1260	15638	
1261	15613	
1262	15650	
1263	15759	
1264	15891	
1265	15973	
1266	15971	
1267	15922	
1268	15899	
1269	15950	
1270	16049	
1271	16116	
1272	16087	
1273	15972	
1274	15841	
1275	15763	
1276	15745	
1277	15731	
1278	15667	
1279	15559	
1280	15477	
1281	15494	
1282	15621	
1283	15793	
1284	15920	
1285	15952	
1286	15918	
1287	15888	
1288	15914	
1289	15992	
1290	16070	
1291	16092	
1292	16041	
1293	15945	
1294	15853	
1295	15794	
1296	15765	
1297	15732	
1298	15665	
1299	15560	
1300	15451	
1301	15390	
1302	15412	
1303	15511	
1304	15635	
1305	15720	
1306	15738	
1307	15717	
1308	15713	
1309	15759	
1310	15827	
1311	15855	
1312	15797	
1313	15665	
1314	15522	
1315	15427	
1316	15391	
1317	15372	
1318	15322	
1319	15238	
1320	15167	
1321	15165	
1322	15245	
1323	15362	
1324	15452	
1325	15481	
1326	15480	
1327	15511	
1328	15609	
1329	15745	
1330	15848	
1331	15856	
1332	15772	
1333	15657	
1334	15580	
1335	15562	
1336	15565	
1337	15535	
1338	15454	
1339	15359	
1340	15313	
1341	15351	
1342	15449	
1343	15544	
1344	15586	
1345	15579	
1346	15572	
1347	15615	
1348	15712	
1349	15814	
1350	15858	
1351	15819	
1352	15726	
1353	15644	
1354	15618	
1355	15642	
1356	15669	
1357	15648	
1358	15574	
1359	15483	
1360	15427	
1361	15428	
1362	15472	
1363	15525	
1364	15565	
1365	15599	
1366	15653	
1367	15743	
1368	15859	
1369	15962	
1370	16013	
1371	15996	
1372	15931	
1373	15861	
1374	15823	
1375	15823	
1376	15827	
1377	15794	
1378	15711	
1379	15610	
1380	15546	
1381	15557	
1382	15629	
1383	15710	
1384	15750	
1385	15743	
1386	15723	
1387	15736	
1388	15797	
1389	15875	
1390	15920	
1391	15904	
1392	15840	
1393	15771	
1394	15729	
1395	15714	
1396	15703	
1397	15678	
1398	15648	
1399	15632	
1400	15645	
1401	15679	
1402	15713	
1403	15738	
1404	15763	
1405	15804	
1406	15867	
1407	15933	
1408	15982	
1409	16006	
1410	16022	
1411	16048	
1412	16081	
1413	16096	
1414	16066	
1415	15992	
1416	15910	
1417	15865	
1418	15871	
1419	15903	
1420	15922	
1421	15916	
1422	15905	
1423	15919	
1424	15967	
1425	16022	
1426	16054	
1427	16061	
1428	16071	
1429	16112	
1430	16179	
1431	16233	
1432	16232	
1433	16171	
1434	16085	
1435	16021	
1436	15993	
1437	15976	
1438	15929	
1439	15836	
1440	15726	
1441	15651	
1442	15653	
1443	15728	
1444	15842	
1445	15959	
1446	16062	
1447	16153	
1448	16237	
1449	16307	
1450	16352	
1451	16364	
1452	16348	
1453	16312	
1454	16265	
1455	16207	
1456	16141	
1457	16075	
1458	16020	
1459	15982	
1460	15957	
1461	15938	
1462	15927	
1463	15933	
1464	15965	
1465	16022	
1466	16088	
1467	16145	
1468	16181	
1469	16199	
1470	16214	
1471	16238	
1472	16266	
1473	16279	
1474	16255	
1475	16189	
1476	16099	
1477	16020	
1478	15978	
1479	15972	
1480	15983	
1481	15991	
1482	15997	
1483	16016	
1484	16064	
1485	16140	
1486	16231	
1487	16324	
1488	16415	
1489	16499	
1490	16558	
1491	16568	
1492	16516	
1493	16422	
1494	16328	
1495	16272	
1496	16263	
1497	16274	
1498	16266	
1499	16232	
1500	16202	
1501	16223	
1502	16317	
1503	16456	
1504	16582	
1505	16652	
1506	16673	
1507	16693	
1508	16754	
1509	16846	
1510	16915	
1511	16902	
1512	16802	
1513	16669	
1514	16577	
1515	16559	
1516	16575	
1517	16550	
1518	16443	
1519	16284	
1520	16157	
1521	16129	
1522	16195	
1523	16285	
1524	16328	
1525	16311	
1526	16282	
1527	16308	
1528	16409	
1529	16541	
1530	16626	
1531	16611	
1532	16510	
1533	16391	
1534	16322	
1535	16316	
1536	16327	
1537	16288	
1538	16175	
1539	16032	
1540	15941	
1541	15958	
1542	16065	
1543	16185	
1544	16248	
1545	16243	
1546	16228	
1547	16271	
1548	16383	
1549	16506	
1550	16562	
1551	16524	
1552	16441	
1553	16396	
1554	16424	
1555	16487	
1556	16503	
1557	16419	
1558	16260	
1559	16103	
1560	16021	
1561	16030	
1562	16090	
1563	16140	
1564	16156	
1565	16159	
1566	16192	
1567	16274	
1568	16384	
1569	16477	
1570	16523	
1571	16525	
1572	16516	
1573	16524	
1574	16550	
1575	16572	
1576	16559	
1577	16494	
1578	16389	
1579	16278	
1580	16202	
1581	16185	
1582	16226	
1583	16295	
1584	16360	
1585	16406	
1586	16439	
1587	16482	
1588	16546	
1589	16616	
1590	16665	
1591	16669	
1592	16631	
1593	16579	
1594	16542	
1595	16534	
1596	16540	
1597	16525	
1598	16461	
1599	16355	
1600	16253	
1601	16204	
1602	16233	
1603	16314	
1604	16397	
1605	16447	
1606	16474	
1607	16512	
1608	16589	
1609	16685	
1610	16756	
1611	16767	
1612	16721	
1613	16656	
1614	16608	
1615	16584	
1616	16565	
1617	16522	
1618	16447	
1619	16358	
1620	16290	
1621	16271	
1622	16307	
1623	16371	
1624	16428	
1625	16453	
1626	16454	
1627	16459	
1628	16492	
1629	16546	
1630	16598	
1631	16631	
1632	16662	
1633	16737	
1634	16890	
1635	17111	
1636	17350	
1637	17549	
1638	17687	
1639	17784	
1640	17881	
1641	18017	
1642	18213	
1643	18474	
1644	18785	
1645	19116	
1646	19427	
1647	19707	
1648	19981	
1649	20304	
1650	20718	
1651	21207	
1652	21701	
1653	22116	
1654	22401	
1655	22564	
1656	22637	
1657	22651	
1658	22607	
1659	22496	
1660	22310	
1661	22058	
1662	21761	
1663	21449	
1664	21160	
1665	20927	
1666	20760	
1667	20622	
1668	20436	
1669	20117	
1670	19631	
1671	19020	
1672	18383	
1673	17825	
1674	17403	
1675	17110	
1676	16902	
1677	16735	
1678	16581	
1679	16433	
1680	16279	
1681	16113	
1682	15944	
1683	15813	
1684	15772	
1685	15850	
1686	16015	
1687	16184	
1688	16269	
1689	16237	
1690	16141	
1691	16071	
1692	16088	
1693	16177	
1694	16258	
1695	16264	
1696	16191	
1697	16099	
1698	16055	
1699	16073	
1700	16110	
1701	16113	
1702	16077	
1703	16050	
1704	16100	
1705	16255	
1706	16471	
1707	16663	
1708	16763	
1709	16769	
1710	16739	
1711	16743	
1712	16800	
1713	16863	
1714	16857	
1715	16752	
1716	16590	
1717	16454	
1718	16397	
1719	16404	
1720	16413	
1721	16377	
1722	16318	
1723	16299	
1724	16369	
1725	16512	
1726	16660	
1727	16754	
1728	16794	
1729	16826	
1730	16891	
1731	16975	
1732	17017	
1733	16965	
1734	16830	
1735	16677	
1736	16576	
1737	16547	
1738	16547	
1739	16519	
1740	16443	
1741	16359	
1742	16333	
1743	16398	
1744	16527	
1745	16651	
1746	16717	
1747	16728	
1748	16741	
1749	16811	
1750	16939	
1751	17057	
1752	17083	
1753	16984	
1754	16809	
1755	16658	
1756	16601	
1757	16622	
1758	16638	
1759	16568	
1760	16414	
1761	16262	
1762	16221	
1763	16333	
1764	16535	
1765	16713	
1766	16788	
1767	16780	
1768	16778	
1769	16852	
1770	16985	
1771	17095	
1772	17106	
1773	17023	
1774	16930	
1775	16903	
1776	16941	
1777	16963	
1778	16890	
1779	16724	
1780	16563	
1781	16513	
1782	16598	
1783	16735	
1784	16807	
1785	16775	
1786	16706	
1787	16720	
1788	16873	
1789	17102	
1790	17276	
1791	17302	
1792	17201	
1793	17081	
1794	17037	
1795	17073	
1796	17101	
1797	17029	
1798	16848	
1799	16642	
1800	16524	
1801	16545	
1802	16667	
1803	16792	
1804	16853	
1805	16852	
1806	16860	
1807	16946	
1808	17125	
1809	17337	
1810	17485	
1811	17509	
1812	17424	
1813	17306	
1814	17238	
1815	17237	
1816	17250	
1817	17197	
1818	17049	
1819	16860	
1820	16731	
1821	16730	
1822	16834	
1823	16952	
1824	16997	
1825	16965	
1826	16930	
1827	16983	
1828	17149	
1829	17363	
1830	17517	
1831	17534	
1832	17433	
1833	17300	
1834	17227	
1835	17235	
1836	17271	
1837	17254	
1838	17147	
1839	16983	
1840	16840	
1841	16782	
1842	16818	
1843	16903	
1844	16976	
1845	17001	
1846	16995	
1847	17010	
1848	17090	
1849	17232	
1850	17384	
1851	17475	
1852	17462	
1853	17361	
1854	17237	
1855	17152	
1856	17125	
1857	17120	
1858	17083	
1859	16991	
1860	16878	
1861	16810	
1862	16826	
1863	16912	
1864	17008	
1865	17069	
1866	17097	
1867	17134	
1868	17219	
1869	17345	
1870	17465	
1871	17524	
1872	17500	
1873	17417	
1874	17323	
1875	17252	
1876	17205	
1877	17156	
1878	17075	
1879	16964	
1880	16860	
1881	16813	
1882	16850	
1883	16959	
1884	17088	
1885	17188	
1886	17239	
1887	17257	
1888	17280	
1889	17326	
1890	17388	
1891	17439	
1892	17459	
1893	17449	
1894	17421	
1895	17380	
1896	17325	
1897	17254	
1898	17178	
1899	17120	
1900	17104	
1901	17140	
1902	17219	
1903	17321	
1904	17424	
1905	17506	
1906	17556	
1907	17582	
1908	17610	
1909	17676	
1910	17792	
1911	17925	
1912	18012	
1913	18002	
1914	17910	
1915	17802	
1916	17756	
1917	17793	
1918	17862	
1919	17888	
1920	17840	
1921	17768	
1922	17763	
1923	17878	
1924	18077	
1925	18259	
1926	18345	
1927	18344	
1928	18348	
1929	18444	
1930	18631	
1931	18809	
1932	18862	
1933	18756	
1934	18578	
1935	18462	
1936	18474	
1937	18563	
1938	18606	
1939	18524	
1940	18347	
1941	18191	
1942	18157	
1943	18255	
1944	18404	
1945	18505	
1946	18518	
1947	18487	
1948	18489	
1949	18563	
1950	18680	
1951	18766	
1952	18762	
1953	18669	
1954	18537	
1955	18425	
1956	18351	
1957	18287	
1958	18194	
1959	18061	
1960	17928	
1961	17856	
1962	17878	
1963	17971	
1964	18072	
1965	18130	
1966	18140	
1967	18144	
1968	18186	
1969	18274	
1970	18366	
1971	18404	
1972	18357	
1973	18246	
1974	18125	
1975	18039	
1976	17988	
1977	17937	
1978	17852	
1979	17731	
1980	17612	
1981	17543	
1982	17545	
1983	17602	
1984	17672	
1985	17721	
1986	17742	
1987	17758	
1988	17798	
1989	17869	
1990	17954	
1991	18010	
1992	18005	
1993	17931	
1994	17821	
1995	17721	
1996	17664	
1997	17640	
1998	17610	
1999	17533	
2000	17413	
2001	17301	
2002	17266	
2003	17338	
2004	17478	
2005	17605	
2006	17657	
2007	17641	
2008	17627	
2009	17677	
2010	17791	
2011	17896	
2012	17911	
2013	17818	
2014	17681	
2015	17587	
2016	17568	
2017	17582	
2018	17549	
2019	17433	
2020	17279	
2021	17175	
2022	17184	
2023	17291	
2024	17422	
2025	17503	
2026	17519	
2027	17516	
2028	17555	
2029	17654	
2030	17775	
2031	17855	
2032	17849	
2033	17771	
2034	17675	
2035	17613	
2036	17596	
2037	17583	
2038	17526	
2039	17413	
2040	17287	
2041	17220	
2042	17255	
2043	17380	
2044	17531	
2045	17652	
2046	17730	
2047	17803	
2048	17917	
2049	18080	
2050	18253	
2051	18374	
2052	18409	
2053	18381	
2054	18345	
2055	18352	
2056	18406	
2057	18466	
2058	18485	
2059	18452	
2060	18403	
2061	18401	
2062	18489	
2063	18655	
2064	18839	
2065	18976	
2066	19042	
2067	19071	
2068	19131	
2069	19269	
2070	19471	
2071	19665	
2072	19774	
2073	19764	
2074	19666	
2075	19549	
2076	19473	
2077	19454	
2078	19469	
2079	19485	
2080	19490	
2081	19500	
2082	19540	
2083	19620	
2084	19728	
2085	19838	
2086	19932	
2087	20011	
2088	20088	
2089	20168	
2090	20242	
2091	20294	
2092	20314	
2093	20312	
2094	20301	
2095	20292	
2096	20278	
2097	20244	
2098	20185	
2099	20115	
2100	20059	
2101	20036	
2102	20054	
2103	20108	
2104	20186	
2105	20276	
2106	20365	
2107	20445	
2108	20515	
2109	20581	
2110	20649	
2111	20715	
2112	20758	
2113	20756	
2114	20702	
2115	20610	
2116	20514	
2117	20444	
2118	20402	
2119	20369	
2120	20317	
2121	20242	
2122	20176	
2123	20168	
2124	20246	
2125	20393	
2126	20543	
2127	20633	
2128	20641	
2129	20606	
2130	20591	
2131	20626	
2132	20685	
2133	20707	
2134	20652	
2135	20541	
2136	20440	
2137	20400	
2138	20416	
2139	20427	
2140	20373	
2141	20251	
2142	20129	
2143	20091	
2144	20179	
2145	20352	
2146	20521	
2147	20615	
2148	20628	
2149	20616	
2150	20635	
2151	20695	
2152	20748	
2153	20738	
2154	20649	
2155	20523	
2156	20428	
2157	20401	
2158	20421	
2159	20428	
2160	20380	
2161	20288	
2162	20213	
2163	20213	
2164	20293	
2165	20403	
2166	20482	
2167	20513	
2168	20535	
2169	20604	
2170	20733	
2171	20870	
2172	20939	
2173	20907	
2174	20812	
2175	20732	
2176	20712	
2177	20727	
2178	20707	
2179	20604	
2180	20440	
2181	20301	
2182	20273	
2183	20374	
2184	20540	
2185	20677	
2186	20734	
2187	20741	
2188	20777	
2189	20891	
2190	21056	
2191	21183	
2192	21198	
2193	21103	
2194	20979	
2195	20911	
2196	20922	
2197	20953	
2198	20918	
2199	20791	
2200	20630	
2201	20536	
2202	20573	
2203	20714	
2204	20871	
2205	20967	
2206	20995	
2207	21012	
2208	21080	
2209	21206	
2210	21333	
2211	21387	
2212	21336	
2213	21212	
2214	21088	
2215	21018	
2216	21004	
2217	20998	
2218	20948	
2219	20847	
2220	20734	
2221	20668	
2222	20678	
2223	20745	
2224	20819	
2225	20862	
2226	20883	
2227	20932	
2228	21055	
2229	21250	
2230	21452	
2231	21570	
2232	21547	
2233	21407	
2234	21234	
2235	21117	
2236	21081	
2237	21076	
2238	21022	
2239	20886	
2240	20712	
2241	20594	
2242	20602	
2243	20723	
2244	20872	
2245	20952	
2246	20932	
2247	20864	
2248	20836	
2249	20890	
2250	20990	
2251	21042	
2252	20982	
2253	20829	
2254	20678	
2255	20619	
2256	20665	
2257	20737	
2258	20734	
2259	20623	
2260	20470	
2261	20388	
2262	20440	
2263	20587	
2264	20720	
2265	20750	
2266	20676	
2267	20586	
2268	20577	
2269	20675	
2270	20822	
2271	20918	
2272	20906	
2273	20806	
2274	20699	
2275	20655	
2276	20680	
2277	20718	
2278	20702	
2279	20612	
2280	20496	
2281	20429	
2282	20459	
2283	20567	
2284	20687	
2285	20754	
2286	20751	
2287	20714	
2288	20700	
2289	20737	
2290	20806	
2291	20853	
2292	20836	
2293	20752	
2294	20648	
2295	20581	
2296	20576	
2297	20612	
2298	20635	
2299	20604	
2300	20527	
2301	20457	
2302	20447	
2303	20510	
2304	20603	
2305	20662	
2306	20658	
2307	20613	
2308	20585	
2309	20610	
2310	20673	
2311	20721	
2312	20711	
2313	20649	
2314	20588	
2315	20580	
2316	20629	
2317	20688	
2318	20692	
2319	20616	
2320	20498	
2321	20412	
2322	20414	
2323	20497	
2324	20594	
2325	20641	
2326	20627	
2327	20601	
2328	20631	
2329	20734	
2330	20858	
2331	20922	
2332	20877	
2333	20749	
2334	20621	
2335	20570	
2336	20607	
2337	20677	
2338	20704	
2339	20659	
2340	20578	
2341	20533	
2342	20575	
2343	20690	
2344	20814	
2345	20887	
2346	20894	
2347	20873	
2348	20878	
2349	20928	
2350	20994	
2351	21026	
2352	20998	
2353	20933	
2354	20884	
2355	20889	
2356	20937	
2357	20976	
2358	20961	
2359	20888	
2360	20801	
2361	20761	
2362	20798	
2363	20892	
2364	20990	
2365	21042	
2366	21035	
2367	20998	
2368	20981	
2369	21012	
2370	21084	
2371	21153	
2372	21177	
2373	21136	
2374	21050	
2375	20954	
2376	20878	
2377	20829	
2378	20793	
2379	20753	
2380	20708	
2381	20675	
2382	20682	
2383	20742	
2384	20832	
2385	20906	
2386	20926	
2387	20887	
2388	20830	
2389	20805	
2390	20831	
2391	20879	
2392	20894	
2393	20842	
2394	20741	
2395	20648	
2396	20613	
2397	20639	
2398	20678	
2399	20677	
2400	20620	
2401	20545	
2402	20515	
2403	20562	
2404	20662	
2405	20754	
2406	20782	
2407	20746	
2408	20695	
2409	20684	
2410	20729	
2411	20789	
2412	20804	
2413	20750	
2414	20664	
2415	20612	
2416	20633	
2417	20702	
2418	20750	
2419	20718	
2420	20615	
2421	20514	
2422	20492	
2423	20574	
2424	20711	
2425	20826	
2426	20866	
2427	20847	
2428	20823	
2429	20842	
2430	20900	
2431	20949	
2432	20945	
2433	20881	
2434	20798	
2435	20749	
2436	20754	
2437	20789	
2438	20807	
2439	20777	
2440	20710	
2441	20650	
2442	20639	
2443	20691	
2444	20779	
2445	20854	
2446	20881	
2447	20869	
2448	20856	
2449	20884	
2450	20954	
2451	21026	
2452	21051	
2453	21013	
2454	20944	
2455	20900	
2456	20913	
2457	20965	
2458	21008	
2459	21006	
2460	20966	
2461	20928	
2462	20929	
2463	20970	
2464	21024	
2465	21062	
2466	21081	
2467	21102	
2468	21141	
2469	21189	
2470	21217	
2471	21207	
2472	21166	
2473	21122	
2474	21093	
2475	21073	
2476	21042	
2477	20989	
2478	20929	
2479	20885	
2480	20866	
2481	20866	
2482	20870	
2483	20873	
2484	20881	
2485	20897	
2486	20908	
2487	20896	
2488	20859	
2489	20822	
2490	20814	
2491	20841	
2492	20872	
2493	20870	
2494	20834	
2495	20818	
2496	20900	
2497	21116	
2498	21431	
2499	21752	
2500	21997	
2501	22153	
2502	22277	
2503	22450	
2504	22720	
2505	23065	
2506	23421	
2507	23731	
2508	23986	
2509	24223	
2510	24493	
2511	24813	
2512	25163	
2513	25504	
2514	25811	
2515	26086	
2516	26331	
2517	26532	
2518	26652	
2519	26661	
2520	26567	
2521	26406	
2522	26219	
2523	26018	
2524	25781	
2525	25492	
2526	25166	
2527	24850	
2528	24592	
2529	24393	
2530	24201	
2531	23935	
2532	23541	
2533	23026	
2534	22453	
2535	21907	
2536	21448	
2537	21095	
2538	20832	
2539	20636	
2540	20493	
2541	20397	
2542	20340	
2543	20308	
2544	20281	
2545	20247	
2546	20210	
2547	20187	
2548	20202	
2549	20262	
2550	20347	
2551	20415	
2552	20420	
2553	20349	
2554	20234	
2555	20136	
2556	20107	
2557	20156	
2558	20240	
2559	20306	
2560	20326	
2561	20326	
2562	20353	
2563	20442	
2564	20574	
2565	20698	
2566	20772	
2567	20802	
2568	20837	
2569	20921	
2570	21046	
2571	21154	
2572	21188	
2573	21147	
2574	21084	
2575	21060	
2576	21090	
2577	21129	
2578	21122	
2579	21057	
2580	20980	
2581	20958	
2582	21023	
2583	21146	
2584	21262	
2585	21321	
2586	21327	
2587	21325	
2588	21361	
2589	21444	
2590	21538	
2591	21599	
2592	21601	
2593	21555	
2594	21492	
2595	21438	
2596	21393	
2597	21345	
2598	21286	
2599	21225	
2600	21185	
2601	21181	
2602	21217	
2603	21279	
2604	21349	
2605	21416	
2606	21472	
2607	21512	
2608	21536	
2609	21551	
2610	21568	
2611	21591	
2612	21611	
2613	21610	
2614	21576	
2615	21514	
2616	21441	
2617	21375	
2618	21323	
2619	21282	
2620	21252	
2621	21241	
2622	21257	
2623	21298	
2624	21350	
2625	21393	
2626	21424	
2627	21455	
2628	21505	
2629	21584	
2630	21676	
2631	21745	
2632	21757	
2633	21701	
2634	21600	
2635	21500	
2636	21436	
2637	21414	
2638	21408	
2639	21382	
2640	21326	
2641	21269	
2642	21258	
2643	21318	
2644	21432	
2645	21548	
2646	21622	
2647	21653	
2648	21682	
2649	21749	
2650	21853	
2651	21944	
2652	21962	
2653	21888	
2654	21763	
2655	21653	
2656	21590	
2657	21554	
2658	21494	
2659	21391	
2660	21285	
2661	21243	
2662	21304	
2663	21440	
2664	21575	
2665	21654	
2666	21681	
2667	21715	
2668	21813	
2669	21979	
2670	22145	
2671	22223	
2672	22170	
2673	22026	
2674	21884	
2675	21825	
2676	21850	
2677	21891	
2678	21861	
2679	21738	
2680	21581	
2681	21488	
2682	21517	
2683	21645	
2684	21792	
2685	21889	
2686	21933	
2687	21977	
2688	22076	
2689	22232	
2690	22387	
2691	22468	
2692	22445	
2693	22351	
2694	22258	
2695	22219	
2696	22228	
2697	22226	
2698	22155	
2699	22002	
2700	21826	
2701	21718	
2702	21736	
2703	21862	
2704	22013	
2705	22111	
2706	22141	
2707	22167	
2708	22267	
2709	22458	
2710	22670	
2711	22794	
2712	22766	
2713	22625	
2714	22478	
2715	22418	
2716	22448	
2717	22484	
2718	22431	
2719	22268	
2720	22073	
2721	21962	
2722	22002	
2723	22160	
2724	22335	
2725	22438	
2726	22462	
2727	22476	
2728	22560	
2729	22738	
2730	22947	
2731	23092	
2732	23115	
2733	23035	
2734	22926	
2735	22857	
2736	22834	
2737	22815	
2738	22749	
2739	22628	
2740	22494	
2741	22403	
2742	22384	
2743	22424	
2744	22485	
2745	22548	
2746	22628	
2747	22756	
2748	22941	
2749	23156	
2750	23339	
2751	23441	
2752	23449	
2753	23392	
2754	23314	
2755	23243	
2756	23182	
2757	23112	
2758	23025	
2759	22928	
2760	22847	
2761	22807	
2762	22821	
2763	22883	
2764	22975	
2765	23077	
2766	23175	
2767	23268	
2768	23367	
2769	23484	
2770	23618	
2771	23749	
2772	23844	
2773	23880	
2774	23856	
2775	23796	
2776	23723	
2777	23650	
2778	23565	
2779	23458	
2780	23340	
2781	23247	
2782	23229	
2783	23311	
2784	23474	
2785	23660	
2786	23815	
2787	23923	
2788	24014	
2789	24135	
2790	24300	
2791	24469	
2792	24574	
2793	24568	
2794	24468	
2795	24342	
2796	24259	
2797	24232	
2798	24207	
2799	24116	
2800	23946	
2801	23768	
2802	23689	
2803	23775	
2804	23989	
2805	24227	
2806	24388	
2807	24460	
2808	24512	
2809	24629	
2810	24829	
2811	25041	
2812	25157	
2813	25117	
2814	24954	
2815	24761	
2816	24611	
2817	24507	
2818	24395	
2819	24225	
2820	24010	
2821	23825	
2822	23749	
2823	23804	
2824	23935	
2825	24057	
2826	24121	
2827	24148	
2828	24201	
2829	24326	
2830	24499	
2831	24640	
2832	24669	
2833	24568	
2834	24390	
2835	24215	
2836	24088	
2837	23987	
2838	23857	
2839	23662	
2840	23431	
2841	23244	
2842	23177	
2843	23249	
2844	23408	
2845	23570	
2846	23676	
2847	23726	
2848	23766	
2849	23841	
2850	23950	
2851	24049	
2852	24086	
2853	24047	
2854	23968	
2855	23902	
2856	23866	
2857	23828	
2858	23727	
2859	23535	
2860	23291	
2861	23083	
2862	22996	
2863	23052	
2864	23205	
2865	23375	
2866	23510	
2867	23610	
2868	23721	
2869	23874	
2870	24055	
2871	24204	
2872	24259	
2873	24202	
2874	24072	
2875	23931	
2876	23819	
2877	23726	
2878	23612	
2879	23449	
2880	23256	
2881	23090	
2882	23011	
2883	23044	
2884	23164	
2885	23315	
2886	23454	
2887	23569	
2888	23683	
2889	23821	
2890	23973	
2891	24101	
2892	24159	
2893	24131	
2894	24043	
2895	23937	
2896	23840	
2897	23742	
2898	23613	
2899	23438	
2900	23245	
2901	23093	
2902	23040	
2903	23106	
2904	23261	
2905	23446	
2906	23607	
2907	23730	
2908	23833	
2909	23944	
2910	24072	
2911	24192	
2912	24268	
2913	24273	
2914	24213	
2915	24115	
2916	24006	
2917	23896	
2918	23774	
2919	23630	
2920	23475	
2921	23344	
2922	23286	
2923	23333	
2924	23475	
2925	23662	
2926	23838	
2927	23974	
2928	24083	
2929	24203	
2930	24348	
2931	24491	
2932	24579	
2933	24574	
2934	24486	
2935	24363	
2936	24253	
2937	24167	
2938	24075	
2939	23940	
2940	23766	
2941	23602	
2942	23517	
2943	23552	
2944	23692	
2945	23882	
2946	24070	
2947	24244	
2948	24428	
2949	24646	
2950	24890	
2951	25110	
2952	25248	
2953	25276	
2954	25217	
2955	25123	
2956	25035	
2957	24958	
2958	24862	
2959	24723	
2960	24555	
2961	24415	
2962	24363	
2963	24429	
2964	24588	
2965	24782	
2966	24959	
2967	25101	
2968	25224	
2969	25351	
2970	25486	
2971	25604	
2972	25671	
2973	25660	
2974	25571	
2975	25424	
2976	25249	
2977	25062	
2978	24865	
2979	24651	
2980	24427	
2981	24223	
2982	24079	
2983	24023	
2984	24055	
2985	24148	
2986	24265	
2987	24383	
2988	24502	
2989	24629	
2990	24756	
2991	24852	
2992	24875	
2993	24799	
2994	24641	
2995	24448	
2996	24270	
2997	24126	
2998	23998	
2999	23858	
3000	23698	
3001	23547	
3002	23455	
3003	23461	
3004	23559	
3005	23703	
3006	23843	
3007	23953	
3008	24048	
3009	24158	
3010	24288	
3011	24405	
3012	24458	
3013	24413	
3014	24281	
3015	24109	
3016	23943	
3017	23799	
3018	23659	
3019	23500	
3020	23327	
3021	23180	
3022	23112	
3023	23145	
3024	23257	
3025	23390	
3026	23498	
3027	23575	
3028	23656	
3029	23775	
3030	23928	
3031	24060	
3032	24100	
3033	24016	
3034	23837	
3035	23637	
3036	23476	
3037	23367	
3038	23272	
3039	23148	
3040	22992	
3041	22853	
3042	22797	
3043	22856	
3044	23008	
3045	23197	
3046	23376	
3047	23532	
3048	23683	
3049	23839	
3050	23992	
3051	24116	
3052	24191	
3053	24220	
3054	24217	
3055	24194	
3056	24146	
3057	24062	
3058	23940	
3059	23803	
3060	23693	
3061	23647	
3062	23678	
3063	23767	
3064	23876	
3065	23979	
3066	24075	
3067	24189	
3068	24348	
3069	24548	
3070	24746	
3071	24874	
3072	24886	
3073	24788	
3074	24638	
3075	24509	
3076	24434	
3077	24386	
3078	24307	
3079	24164	
3080	23988	
3081	23854	
3082	23833	
3083	23934	
3084	24099	
3085	24247	
3086	24338	
3087	24393	
3088	24467	
3089	24595	
3090	24756	
3091	24886	
3092	24926	
3093	24870	
3094	24763	
3095	24665	
3096	24604	
3097	24566	
3098	24511	
3099	24412	
3100	24287	
3101	24181	
3102	24140	
3103	24182	
3104	24288	
3105	24421	
3106	24555	
3107	24688	
3108	24837	
3109	25010	
3110	25190	
3111	25332	
3112	25391	
3113	25349	
3114	25239	
3115	25123	
3116	25052	
3117	25034	
3118	25028	
3119	24983	
3120	24885	
3121	24768	
3122	24693	
3123	24702	
3124	24784	
3125	24891	
3126	24982	
3127	25054	
3128	25141	
3129	25273	
3130	25437	
3131	25581	
3132	25655	
3133	25650	
3134	25609	
3135	25583	
3136	25590	
3137	25599	
3138	25566	
3139	25480	
3140	25384	
3141	25345	
3142	25407	
3143	25553	
3144	25717	
3145	25830	
3146	25869	
3147	25862	
3148	25865	
3149	25916	
3150	26006	
3151	26092	
3152	26130	
3153	26100	
3154	26020	
3155	25929	
3156	25862	
3157	25834	
3158	25839	
3159	25855	
3160	25865	
3161	25868	
3162	25876	
3163	25904	
3164	25951	
3165	25999	
3166	26029	
3167	26034	
3168	26029	
3169	26035	
3170	26062	
3171	26099	
3172	26123	
3173	26116	
3174	26085	
3175	26052	
3176	26038	
3177	26046	
3178	26058	
3179	26055	
3180	26037	
3181	26025	
3182	26045	
3183	26107	
3184	26193	
3185	26278	
3186	26341	
3187	26386	
3188	26432	
3189	26491	
3190	26554	
3191	26594	
3192	26589	
3193	26541	
3194	26485	
3195	26457	
3196	26472	
3197	26503	
3198	26506	
3199	26454	
3200	26362	
3201	26281	
3202	26265	
3203	26332	
3204	26453	
3205	26572	
3206	26646	
3207	26668	
3208	26666	
3209	26678	
3210	26723	
3211	26791	
3212	26854	
3213	26889	
3214	26891	
3215	26876	
3216	26859	
3217	26846	
3218	26832	
3219	26810	
3220	26787	
3221	26773	
3222	26778	
3223	26804	
3224	26841	
3225	26885	
3226	26933	
3227	26984	
3228	27030	
3229	27060	
3230	27065	
3231	27051	
3232	27037	
3233	27040	
3234	27059	
3235	27077	
3236	27071	
3237	27031	
3238	26971	
3239	26916	
3240	26887	
3241	26884	
3242	26896	
3243	26910	
3244	26930	
3245	26962	
3246	27011	
3247	27067	
3248	27114	
3249	27141	
3250	27149	
3251	27149	
3252	27152	
3253	27162	
3254	27174	
3255	27180	
3256	27174	
3257	27157	
3258	27132	
3259	27107	
3260	27083	
3261	27062	
3262	27042	
3263	27025	
3264	27019	
3265	27031	
3266	27059	
3267	27095	
3268	27124	
3269	27140	
3270	27147	
3271	27155	
3272	27167	
3273	27176	
3274	27167	
3275	27134	
3276	27087	
3277	27052	
3278	27048	
3279	27074	
3280	27106	
3281	27120	
3282	27114	
3283	27111	
3284	27137	
3285	27198	
3286	27264	
3287	27293	
3288	27265	
3289	27204	
3290	27162	
3291	27178	
3292	27245	
3293	27313	
3294	27333	
3295	27288	
3296	27209	
3297	27149	
3298	27136	
3299	27160	
3300	27187	
3301	27185	
3302	27157	
3303	27127	
3304	27126	
3305	27161	
3306	27216	
3307	27263	
3308	27285	
3309	27287	
3310	27280	
3311	27271	
3312	27252	
3313	27208	
3314	27136	
3315	27059	
3316	27014	
3317	27032	
3318	27111	
3319	27211	
3320	27279	
3321	27290	
3322	27261	
3323	27242	
3324	27278	
3325	27375	
3326	27493	
3327	27577	
3328	27597	
3329	27568	
3330	27536	
3331	27541	
3332	27586	
3333	27642	
3334	27671	
3335	27659	
3336	27622	
3337	27587	
3338	27569	
3339	27563	
3340	27554	
3341	27537	
3342	27523	
3343	27526	
3344	27556	
3345	27598	
3346	27634	
3347	27648	
3348	27647	
3349	27646	
3350	27658	
3351	27682	
3352	27699	
3353	27698	
3354	27679	
3355	27659	
3356	27652	
3357	27651	
3358	27633	
3359	27579	
3360	27489	
3361	27394	
3362	27330	
3363	27315	
3364	27336	
3365	27356	
3366	27350	
3367	27323	
3368	27316	
3369	27376	
3370	27529	
3371	27762	
3372	28032	
3373	28289	
3374	28508	
3375	28691	
3376	28859	
3377	29031	
3378	29211	
3379	29397	
3380	29586	
3381	29787	
3382	30015	
3383	30279	
3384	30575	
3385	30894	
3386	31231	
3387	31595	
3388	31996	
3389	32428	
3390	32850	
3391	33201	
3392	33423	
3393	33499	
3394	33460	
3395	33371	
3396	33283	
3397	33203	
3398	33094	
3399	32907	
3400	32632	
3401	32309	
3402	32009	
3403	31785	
3404	31627	
3405	31471	
3406	31230	
3407	30855	
3408	30362	
3409	29819	
3410	29312	
3411	28898	
3412	28589	
3413	28365	
3414	28199	
3415	28071	
3416	27972	
3417	27887	
3418	27798	
3419	27691	
3420	27572	
3421	27473	
3422	27430	
3423	27465	
3424	27562	
3425	27674	
3426	27749	
3427	27766	
3428	27743	
3429	27725	
3430	27752	
3431	27831	
3432	27936	
3433	28021	
3434	28057	
3435	28040	
3436	28000	
3437	27973	
3438	27979	
3439	28013	
3440	28055	
3441	28089	
3442	28115	
3443	28147	
3444	28195	
3445	28258	
3446	28317	
3447	28355	
3448	28365	
3449	28358	
3450	28355	
3451	28373	
3452	28414	
3453	28466	
3454	28510	
3455	28528	
3456	28513	
3457	28475	
3458	28430	
3459	28397	
3460	28387	
3461	28397	
3462	28417	
3463	28441	
3464	28466	
3465	28493	
3466	28520	
3467	28546	
3468	28568	
3469	28592	
3470	28621	
3471	28651	
3472	28669	
3473	28658	
3474	28612	
3475	28549	
3476	28499	
3477	28486	
3478	28507	
3479	28532	
3480	28528	
3481	28488	
3482	28437	
3483	28417	
3484	28450	
3485	28523	
3486	28597	
3487	28640	
3488	28648	
3489	28647	
3490	28666	
3491	28712	
3492	28763	
3493	28783	
3494	28753	
3495	28689	
3496	28624	
3497	28589	
3498	28589	
3499	28600	
3500	28599	
3501	28579	
3502	28556	
3503	28558	
3504	28595	
3505	28656	
3506	28712	
3507	28740	
3508	28740	
3509	28732	
3510	28738	
3511	28761	
3512	28784	
3513	28779	
3514	28735	
3515	28664	
3516	28597	
3517	28560	
3518	28555	
3519	28562	
3520	28556	
3521	28528	
3522	28494	
3523	28483	
3524	28514	
3525	28583	
3526	28664	
3527	28729	
3528	28768	
3529	28793	
3530	28815	
3531	28835	
3532	28837	
3533	28807	
3534	28752	
3535	28697	
3536	28671	
3537	28681	
3538	28705	
3539	28710	
3540	28676	
3541	28617	
3542	28566	
3543	28556	
3544	28594	
3545	28659	
3546	28720	
3547	28759	
3548	28779	
3549	28797	
3550	28825	
3551	28855	
3552	28870	
3553	28853	
3554	28804	
3555	28745	
3556	28699	
3557	28678	
3558	28670	
3559	28651	
3560	28603	
3561	28534	
3562	28472	
3563	28450	
3564	28480	
3565	28540	
3566	28596	
3567	28620	
3568	28618	
3569	28619	
3570	28647	
3571	28702	
3572	28753	
3573	28766	
3574	28728	
3575	28657	
3576	28584	
3577	28527	
3578	28484	
3579	28438	
3580	28388	
3581	28353	
3582	28359	
3583	28419	
3584	28512	
3585	28595	
3586	28631	
3587	28616	
3588	28580	
3589	28568	
3590	28602	
3591	28671	
3592	28734	
3593	28752	
3594	28709	
3595	28625	
3596	28541	
3597	28493	
3598	28487	
3599	28500	
3600	28502	
3601	28481	
3602	28449	
3603	28436	
3604	28457	
3605	28504	
3606	28548	
3607	28570	
3608	28573	
3609	28580	
3610	28607	
3611	28649	
3612	28678	
3613	28670	
3614	28625	
3615	28572	
3616	28545	
3617	28556	
3618	28585	
3619	28601	
3620	28591	
3621	28572	
3622	28580	
3623	28636	
3624	28727	
3625	28817	
3626	28872	
3627	28893	
3628	28912	
3629	28964	
3630	29056	
3631	29157	
3632	29225	
3633	29238	
3634	29217	
3635	29207	
3636	29236	
3637	29295	
3638	29342	
3639	29339	
3640	29289	
3641	29237	
3642	29237	
3643	29312	
3644	29436	
3645	29554	
3646	29628	
3647	29662	
3648	29696	
3649	29772	
3650	29899	
3651	30044	
3652	30162	
3653	30230	
3654	30263	
3655	30300	
3656	30369	
3657	30467	
3658	30564	
3659	30623	
3660	30636	
3661	30624	
3662	30624	
3663	30664	
3664	30745	
3665	30846	
3666	30940	
3667	31015	
3668	31078	
3669	31142	
3670	31212	
3671	31284	
3672	31346	
3673	31389	
3674	31415	
3675	31435	
3676	31454	
3677	31472	
3678	31480	
3679	31473	
3680	31458	
3681	31451	
3682	31469	
3683	31516	
3684	31579	
3685	31638	
3686	31677	
3687	31699	
3688	31723	
3689	31768	
3690	31841	
3691	31928	
3692	32001	
3693	32034	
3694	32017	
3695	31958	
3696	31878	
3697	31794	
3698	31717	
3699	31647	
3700	31585	
3701	31534	
3702	31498	
3703	31482	
3704	31480	
3705	31487	
3706	31496	
3707	31507	
3708	31524	
3709	31548	
3710	31573	
3711	31587	
3712	31581	
3713	31553	
3714	31510	
3715	31461	
3716	31407	
3717	31344	
3718	31262	
3719	31165	
3720	31068	
3721	30996	
3722	30967	
3723	30983	
3724	31023	
3725	31060	
3726	31077	
3727	31078	
3728	31083	
3729	31108	
3730	31155	
3731	31203	
3732	31228	
3733	31216	
3734	31177	
3735	31133	
3736	31097	
3737	31070	
3738	31036	
3739	30980	
3740	30911	
3741	30855	
3742	30842	
3743	30882	
3744	30957	
3745	31030	
3746	31074	
3747	31086	
3748	31091	
3749	31120	
3750	31183	
3751	31262	
3752	31319	
3753	31325	
3754	31275	
3755	31191	
3756	31104	
3757	31033	
3758	30972	
3759	30908	
3760	30837	
3761	30772	
3762	30736	
3763	30743	
3764	30787	
3765	30847	
3766	30903	
3767	30952	
3768	31003	
3769	31069	
3770	31145	
3771	31209	
3772	31236	
3773	31214	
3774	31156	
3775	31088	
3776	31031	
3777	30989	
3778	30945	
3779	30885	
3780	30808	
3781	30734	
3782	30692	
3783	30697	
3784	30741	
3785	30798	
3786	30843	
3787	30871	
3788	30897	
3789	30945	
3790	31021	
3791	31105	
3792	31162	
3793	31164	
3794	31111	
3795	31030	
3796	30953	
3797	30898	
3798	30856	
3799	30803	
3800	30729	
3801	30649	
3802	30600	
3803	30612	
3804	30688	
3805	30796	
3806	30891	
3807	30946	
3808	30964	
3809	30972	
3810	30997	
3811	31043	
3812	31089	
3813	31108	
3814	31090	
3815	31044	
3816	30996	
3817	30961	
3818	30935	
3819	30902	
3820	30848	
3821	30784	
3822	30736	
3823	30732	
3824	30778	
3825	30854	
3826	30932	
3827	30993	
3828	31044	
3829	31107	
3830	31193	
3831	31287	
3832	31355	
3833	31367	
3834	31319	
3835	31237	
3836	31153	
3837	31088	
3838	31041	
3839	30996	
3840	30949	
3841	30909	
3842	30899	
3843	30928	
3844	30985	
3845	31043	
3846	31082	
3847	31104	
3848	31128	
3849	31179	
3850	31260	
3851	31349	
3852	31415	
3853	31435	
3854	31414	
3855	31372	
3856	31328	
3857	31287	
3858	31236	
3859	31165	
3860	31081	
3861	31009	
3862	30976	
3863	30994	
3864	31049	
3865	31113	
3866	31166	
3867	31207	
3868	31255	
3869	31326	
3870	31412	
3871	31487	
3872	31518	
3873	31497	
3874	31446	
3875	31405	
3876	31397	
3877	31415	
3878	31421	
3879	31379	
3880	31287	
3881	31181	
3882	31113	
3883	31113	
3884	31172	
3885	31248	
3886	31306	
3887	31337	
3888	31369	
3889	31432	
3890	31532	
3891	31635	
3892	31694	
3893	31678	
3894	31603	
3895	31513	
3896	31451	
3897	31426	
3898	31407	
3899	31356	
3900	31260	
3901	31149	
3902	31074	
3903	31069	
3904	31129	
3905	31210	
3906	31272	
3907	31300	
3908	31318	
3909	31358	
3910	31430	
3911	31510	
3912	31555	
3913	31542	
3914	31484	
3915	31423	
3916	31396	
3917	31402	
3918	31403	
3919	31356	
3920	31247	
3921	31112	
3922	31015	
3923	31003	
3924	31077	
3925	31190	
3926	31281	
3927	31318	
3928	31316	
3929	31315	
3930	31347	
3931	31410	
3932	31466	
3933	31477	
3934	31433	
3935	31362	
3936	31300	
3937	31267	
3938	31246	
3939	31202	
3940	31118	
3941	31014	
3942	30935	
3943	30920	
3944	30970	
3945	31045	
3946	31097	
3947	31108	
3948	31104	
3949	31133	
3950	31219	
3951	31343	
3952	31445	
3953	31473	
3954	31416	
3955	31319	
3956	31241	
3957	31220	
3958	31239	
3959	31249	
3960	31208	
3961	31114	
3962	31013	
3963	30961	
3964	30983	
3965	31060	
3966	31146	
3967	31206	
3968	31239	
3969	31274	
3970	31334	
3971	31412	
3972	31475	
3973	31488	
3974	31446	
3975	31381	
3976	31332	
3977	31315	
3978	31309	
3979	31269	
3980	31171	
3981	31037	
3982	30922	
3983	30885	
3984	30942	
3985	31063	
3986	31191	
3987	31281	
3988	31328	
3989	31353	
3990	31382	
3991	31413	
3992	31425	
3993	31395	
3994	31321	
3995	31232	
3996	31162	
3997	31124	
3998	31104	
3999	31072	
4000	31012	
4001	30937	
4002	30883	
4003	30882	
4004	30934	
4005	31014	
4006	31088	
4007	31148	
4008	31211	
4009	31300	
4010	31416	
4011	31526	
4012	31583	
4013	31559	
4014	31475	
4015	31383	
4016	31332	
4017	31331	
4018	31348	
4019	31334	
4020	31273	
4021	31192	
4022	31141	
4023	31153	
4024	31216	
4025	31283	
4026	31317	
4027	31316	
4028	31320	
4029	31373	
4030	31483	
4031	31608	
4032	31689	
4033	31685	
4034	31611	
4035	31517	
4036	31455	
4037	31439	
4038	31437	
4039	31405	
4040	31323	
4041	31219	
4042	31146	
4043	31147	
4044	31223	
4045	31331	
4046	31422	
4047	31472	
4048	31498	
4049	31537	
4050	31614	
4051	31715	
4052	31803	
4053	31839	
4054	31816	
4055	31758	
4056	31701	
4057	31664	
4058	31639	
4059	31604	
4060	31545	
4061	31473	
4062	31420	
4063	31411	
4064	31450	
4065	31518	
4066	31588	
4067	31650	
4068	31714	
4069	31796	
4070	31896	
4071	31991	
4072	32042	
4073	32024	
4074	31944	
4075	31840	
4076	31752	
4077	31699	
4078	31670	
4079	31636	
4080	31582	
4081	31520	
4082	31484	
4083	31500	
4084	31563	
4085	31642	
4086	31699	
4087	31724	
4088	31738	
4089	31781	
4090	31870	
4091	31987	
4092	32084	
4093	32117	
4094	32081	
4095	32012	
4096	31956	
4097	31935	
4098	31934	
4099	31914	
4100	31851	
4101	31762	
4102	31690	
4103	31679	
4104	31733	
4105	31821	
4106	31895	
4107	31933	
4108	31946	
4109	31967	
4110	32016	
4111	32082	
4112	32129	
4113	32128	
4114	32076	
4115	32001	
4116	31938	
4117	31899	
4118	31867	
4119	31817	
4120	31740	
4121	31655	
4122	31598	
4123	31591	
4124	31627	
4125	31674	
4126	31701	
4127	31707	
4128	31720	
4129	31769	
4130	31858	
4131	31954	
4132	32006	
4133	31980	
4134	31889	
4135	31782	
4136	31711	
4137	31695	
4138	31708	
4139	31703	
4140	31651	
4141	31566	
4142	31495	
4143	31485	
4144	31549	
4145	31652	
4146	31743	
4147	31789	
4148	31800	
4149	31815	
4150	31868	
4151	31955	
4152	32038	
4153	32067	
4154	32021	
4155	31925	
4156	31828	
4157	31774	
4158	31769	
4159	31783	
4160	31777	
4161	31733	
4162	31666	
4163	31611	
4164	31598	
4165	31631	
4166	31689	
4167	31749	
4168	31800	
4169	31850	
4170	31906	
4171	31964	
4172	32006	
4173	32012	
4174	31979	
4175	31926	
4176	31881	
4177	31858	
4178	31848	
4179	31831	
4180	31795	
4181	31752	
4182	31727	
4183	31746	
4184	31807	
4185	31887	
4186	31956	
4187	32000	
4188	32030	
4189	32068	
4190	32124	
4191	32185	
4192	32221	
4193	32209	
4194	32153	
4195	32082	
4196	32028	
4197	32003	
4198	31989	
4199	31956	
4200	31886	
4201	31797	
4202	31725	
4203	31710	
4204	31758	
4205	31846	
4206	31934	
4207	31994	
4208	32027	
4209	32052	
4210	32085	
4211	32124	
4212	32151	
4213	32146	
4214	32104	
4215	32045	
4216	31991	
4217	31953	
4218	31922	
4219	31880	
4220	31821	
4221	31756	
4222	31715	
4223	31722	
4224	31776	
4225	31855	
4226	31926	
4227	31972	
4228	31995	
4229	32015	
4230	32043	
4231	32071	
4232	32075	
4233	32032	
4234	31942	
4235	31830	
4236	31733	
4237	31672	
4238	31644	
4239	31634	
4240	31636	
4241	31673	
4242	31783	
4243	31993	
4244	32293	
4245	32628	
4246	32929	
4247	33157	
4248	33323	
4249	33477	
4250	33672	
4251	33919	
4252	34187	
4253	34427	
4254	34611	
4255	34762	
4256	34937	
4257	35196	
4258	35563	
4259	36009	
4260	36474	
4261	36893	
4262	37232	
4263	37484	
4264	37665	
4265	37789	
4266	37860	
4267	37873	
4268	37819	
4269	37694	
4270	37501	
4271	37250	
4272	36957	
4273	36643	
4274	36320	
4275	35987	
4276	35618	
4277	35180	
4278	34647	
4279	34032	
4280	33389	
4281	32800	
4282	32342	
4283	32052	
4284	31914	
4285	31867	
4286	31840	
4287	31784	
4288	31690	
4289	31588	
4290	31515	
4291	31495	
4292	31518	
4293	31554	
4294	31573	
4295	31560	
4296	31521	
4297	31470	
4298	31413	
4299	31350	
4300	31282	
4301	31227	
4302	31211	
4303	31256	
4304	31364	
4305	31507	
4306	31649	
4307	31762	
4308	31848	
4309	31929	
4310	32023	
4311	32130	
4312	32224	
4313	32279	
4314	32281	
4315	32247	
4316	32203	
4317	32170	
4318	32151	
4319	32135	
4320	32115	
4321	32101	
4322	32114	
4323	32165	
4324	32245	
4325	32323	
4326	32374	
4327	32390	
4328	32394	
4329	32413	
4330	32457	
4331	32509	
4332	32531	
4333	32501	
4334	32424	
4335	32337	
4336	32275	
4337	32251	
4338	32246	
4339	32230	
4340	32186	
4341	32125	
4342	32078	
4343	32072	
4344	32106	
4345	32162	
4346	32216	
4347	32263	
4348	32317	
4349	32395	
4350	32493	
4351	32585	
4352	32632	
4353	32613	
4354	32542	
4355	32458	
4356	32399	
4357	32374	
4358	32363	
4359	32333	
4360	32272	
4361	32200	
4362	32160	
4363	32180	
4364	32257	
4365	32354	
4366	32429	
4367	32464	
4368	32474	
4369	32489	
4370	32529	
4371	32580	
4372	32609	
4373	32588	
4374	32520	
4375	32438	
4376	32379	
4377	32361	
4378	32368	
4379	32369	
4380	32344	
4381	32300	
4382	32264	
4383	32265	
4384	32305	
4385	32360	
4386	32404	
4387	32422	
4388	32426	
4389	32438	
4390	32469	
4391	32509	
4392	32532	
4393	32517	
4394	32467	
4395	32405	
4396	32357	
4397	32332	
4398	32310	
4399	32268	
4400	32195	
4401	32112	
4402	32055	
4403	32056	
4404	32117	
4405	32209	
4406	32291	
4407	32339	
4408	32359	
4409	32375	
4410	32408	
4411	32452	
4412	32485	
4413	32480	
4414	32431	
4415	32359	
4416	32293	
4417	32251	
4418	32232	
4419	32216	
4420	32191	
4421	32164	
4422	32152	
4423	32172	
4424	32220	
4425	32271	
4426	32299	
4427	32298	
4428	32288	
4429	32301	
4430	32354	
4431	32434	
4432	32503	
4433	32526	
4434	32493	
4435	32428	
4436	32367	
4437	32331	
4438	32310	
4439	32277	
4440	32209	
4441	32113	
4442	32020	
4443	31969	
4444	31977	
4445	32027	
4446	32086	
4447	32129	
4448	32156	
4449	32189	
4450	32247	
4451	32324	
4452	32391	
4453	32413	
4454	32376	
4455	32295	
4456	32208	
4457	32143	
4458	32101	
4459	32061	
4460	31998	
4461	31912	
4462	31828	
4463	31781	
4464	31793	
4465	31858	
4466	31949	
4467	32038	
4468	32112	
4469	32171	
4470	32221	
4471	32258	
4472	32267	
4473	32238	
4474	32172	
4475	32089	
4476	32010	
4477	31951	
4478	31909	
4479	31870	
4480	31830	
4481	31794	
4482	31781	
4483	31807	
4484	31873	
4485	31960	
4486	32045	
4487	32114	
4488	32172	
4489	32230	
4490	32296	
4491	32360	
4492	32399	
4493	32394	
4494	32345	
4495	32274	
4496	32210	
4497	32169	
4498	32145	
4499	32115	
4500	32065	
4501	32003	
4502	31956	
4503	31951	
4504	31992	
4505	32061	
4506	32130	
4507	32185	
4508	32233	
4509	32292	
4510	32373	
4511	32461	
4512	32521	
4513	32527	
4514	32479	
4515	32408	
4516	32354	
4517	32337	
4518	32343	
4519	32340	
4520	32304	
4521	32242	
4522	32190	
4523	32186	
4524	32241	
4525	32336	
4526	32434	
4527	32512	
4528	32572	
4529	32637	
4530	32724	
4531	32827	
4532	32919	
4533	32971	
4534	32972	
4535	32941	
4536	32909	
4537	32894	
4538	32892	
4539	32881	
4540	32845	
4541	32791	
4542	32747	
4543	32744	
4544	32796	
4545	32894	
4546	33011	
4547	33131	
4548	33251	
4549	33382	
4550	33523	
4551	33655	
4552	33743	
4553	33760	
4554	33707	
4555	33616	
4556	33533	
4557	33488	
4558	33479	
4559	33480	
4560	33465	
4561	33426	
4562	33382	
4563	33356	
4564	33362	
4565	33393	
4566	33429	
4567	33458	
4568	33484	
4569	33523	
4570	33582	
4571	33646	
4572	33685	
4573	33668	
4574	33580	
4575	33432	
4576	33247	
4577	33047	
4578	32844	
4579	32647	
4580	32474	
4581	32352	
4582	32313	
4583	32367	
4584	32493	
4585	32645	
4586	32773	
4587	32849	
4588	32875	
4589	32875	
4590	32878	
4591	32892	
4592	32911	
4593	32922	
4594	32920	
4595	32911	
4596	32901	
4597	32885	
4598	32849	
4599	32782	
4600	32694	
4601	32619	
4602	32604	
4603	32673	
4604	32813	
4605	32981	
4606	33128	
4607	33234	
4608	33315	
4609	33408	
4610	33542	
4611	33710	
4612	33875	
4613	33995	
4614	34053	
4615	34061	
4616	34046	
4617	34030	
4618	34009	
4619	33964	
4620	33874	
4621	33739	
4622	33571	
4623	33386	
4624	33187	
4625	32965	
4626	32716	
4627	32456	
4628	32224	
4629	32063	
4630	31990	
4631	31985	
4632	31996	
4633	31968	
4634	31866	
4635	31694	
4636	31479	
4637	31256	
4638	31054	
4639	30885	
4640	30757	
4641	30674	
4642	30637	
4643	30638	
4644	30663	
4645	30699	
4646	30743	
4647	30809	
4648	30915	
4649	31071	
4650	31260	
4651	31443	
4652	31578	
4653	31648	
4654	31664	
4655	31660	
4656	31662	
4657	31671	
4658	31665	
4659	31617	
4660	31523	
4661	31408	
4662	31315	
4663	31280	
4664	31309	
4665	31386	
4666	31484	
4667	31591	
4668	31709	
4669	31839	
4670	31967	
4671	32060	
4672	32085	
4673	32037	
4674	31951	
4675	31878	
4676	31860	
4677	31895	
4678	31945	
4679	31964	
4680	31931	
4681	31867	
4682	31819	
4683	31819	
4684	31868	
4685	31938	
4686	32003	
4687	32061	
4688	32139	
4689	32267	
4690	32440	
4691	32616	
4692	32737	
4693	32768	
4694	32722	
4695	32650	
4696	32602	
4697	32593	
4698	32594	
4699	32565	
4700	32492	
4701	32402	
4702	32347	
4703	32365	
4704	32451	
4705	32567	
4706	32666	
4707	32733	
4708	32785	
4709	32855	
4710	32960	
4711	33077	
4712	33166	
4713	33191	
4714	33149	
4715	33067	
4716	32980	
4717	32909	
4718	32851	
4719	32793	
4720	32731	
4721	32680	
4722	32663	
4723	32690	
4724	32747	
4725	32810	
4726	32868	
4727	32932	
4728	33034	
4729	33193	
4730	33389	
4731	33569	
4732	33670	
4733	33661	
4734	33561	
4735	33428	
4736	33318	
4737	33249	
4738	33202	
4739	33142	
4740	33053	
4741	32957	
4742	32895	
4743	32896	
4744	32955	
4745	33037	
4746	33107	
4747	33159	
4748	33214	
4749	33299	
4750	33417	
4751	33535	
4752	33609	
4753	33613	
4754	33559	
4755	33490	
4756	33441	
4757	33417	
4758	33385	
4759	33306	
4760	33174	
4761	33028	
4762	32930	
4763	32925	
4764	33009	
4765	33134	
4766	33245	
4767	33314	
4768	33362	
4769	33428	
4770	33532	
4771	33656	
4772	33748	
4773	33767	
4774	33706	
4775	33606	
4776	33517	
4777	33466	
4778	33439	
4779	33397	
4780	33314	
4781	33202	
4782	33104	
4783	33061	
4784	33087	
4785	33157	
4786	33235	
4787	33302	
4788	33369	
4789	33461	
4790	33587	
4791	33722	
4792	33821	
4793	33849	
4794	33808	
4795	33739	
4796	33685	
4797	33658	
4798	33628	
4799	33548	
4800	33399	
4801	33212	
4802	33060	
4803	33007	
4804	33073	
4805	33212	
4806	33351	
4807	33438	
4808	33472	
4809	33499	
4810	33565	
4811	33678	
4812	33798	
4813	33866	
4814	33844	
4815	33740	
4816	33601	
4817	33471	
4818	33371	
4819	33289	
4820	33208	
4821	33131	
4822	33081	
4823	33088	
4824	33157	
4825	33259	
4826	33352	
4827	33408	
4828	33432	
4829	33457	
4830	33511	
4831	33587	
4832	33648	
4833	33646	
4834	33560	
4835	33407	
4836	33235	
4837	33085	
4838	32972	
4839	32883	
4840	32801	
4841	32728	
4842	32685	
4843	32698	
4844	32770	
4845	32871	
4846	32962	
4847	33018	
4848	33045	
4849	33075	
4850	33137	
4851	33224	
4852	33300	
4853	33321	
4854	33273	
4855	33180	
4856	33094	
4857	33053	
4858	33057	
4859	33072	
4860	33059	
4861	33007	
4862	32944	
4863	32915	
4864	32950	
4865	33039	
4866	33143	
4867	33226	
4868	33279	
4869	33320	
4870	33374	
4871	33444	
4872	33507	
4873	33530	
4874	33500	
4875	33434	
4876	33369	
4877	33330	
4878	33310	
4879	33283	
4880	33224	
4881	33142	
4882	33076	
4883	33074	
4884	33155	
4885	33292	
4886	33429	
4887	33518	
4888	33548	
4889	33544	
4890	33548	
4891	33582	
4892	33631	
4893	33662	
4894	33648	
4895	33587	
4896	33503	
4897	33422	
4898	33353	
4899	33289	
4900	33217	
4901	33144	
4902	33092	
4903	33090	
4904	33144	
4905	33234	
4906	33325	
4907	33388	
4908	33420	
4909	33441	
4910	33476	
4911	33528	
4912	33576	
4913	33589	
4914	33548	
4915	33461	
4916	33359	
4917	33274	
4918	33219	
4919	33182	
4920	33141	
4921	33085	
4922	33023	
4923	32975	
4924	32963	
4925	32991	
4926	33049	
4927	33123	
4928	33204	
4929	33287	
4930	33368	
4931	33432	
4932	33461	
4933	33445	
4934	33390	
4935	33320	
4936	33258	
4937	33214	
4938	33183	
4939	33149	
4940	33103	
4941	33052	
4942	33017	
4943	33013	
4944	33045	
4945	33104	
4946	33176	
4947	33255	
4948	33340	
4949	33430	
4950	33511	
4951	33562	
4952	33560	
4953	33507	
4954	33425	
4955	33352	
4956	33313	
4957	33306	
4958	33303	
4959	33270	
4960	33196	
4961	33102	
4962	33026	
4963	32997	
4964	33018	
4965	33066	
4966	33115	
4967	33157	
4968	33207	
4969	33283	
4970	33384	
4971	33486	
4972	33550	
4973	33551	
4974	33495	
4975	33416	
4976	33346	
4977	33298	
4978	33258	
4979	33203	
4980	33127	
4981	33052	
4982	33014	
4983	33036	
4984	33108	
4985	33195	
4986	33257	
4987	33283	
4988	33292	
4989	33318	
4990	33379	
4991	33459	
4992	33517	
4993	33516	
4994	33447	
4995	33336	
4996	33220	
4997	33122	
4998	33038	
4999	32948	
5000	32840	
5001	32730	
5002	32657	
5003	32651	
5004	32718	
5005	32826	
5006	32929	
5007	32995	
5008	33022	
5009	33035	
5010	33061	
5011	33104	
5012	33147	
5013	33165	
5014	33147	
5015	33103	
5016	33056	
5017	33020	
5018	32992	
5019	32956	
5020	32902	
5021	32843	
5022	32806	
5023	32816	
5024	32877	
5025	32963	
5026	33040	
5027	33091	
5028	33122	
5029	33163	
5030	33233	
5031	33330	
5032	33420	
5033	33467	
5034	33449	
5035	33377	
5036	33279	
5037	33184	
5038	33102	
5039	33027	
5040	32950	
5041	32881	
5042	32839	
5043	32843	
5044	32895	
5045	32976	
5046	33057	
5047	33124	
5048	33185	
5049	33260	
5050	33364	
5051	33484	
5052	33590	
5053	33648	
5054	33645	
5055	33594	
5056	33520	
5057	33440	
5058	33353	
5059	33249	
5060	33125	
5061	33004	
5062	32920	
5063	32902	
5064	32950	
5065	33036	
5066	33123	
5067	33189	
5068	33243	
5069	33308	
5070	33400	
5071	33506	
5072	33592	
5073	33624	
5074	33595	
5075	33526	
5076	33448	
5077	33380	
5078	33312	
5079	33222	
5080	33099	
5081	32965	
5082	32864	
5083	32839	
5084	32897	
5085	33011	
5086	33135	
5087	33239	
5088	33324	
5089	33411	
5090	33514	
5091	33618	
5092	33686	
5093	33682	
5094	33601	
5095	33475	
5096	33351	
5097	33257	
5098	33190	
5099	33127	
5100	33060	
5101	33017	
5102	33053	
5103	33212	
5104	33493	
5105	33844	
5106	34189	
5107	34478	
5108	34716	
5109	34951	
5110	35236	
5111	35581	
5112	35944	
5113	36261	
5114	36487	
5115	36630	
5116	36745	
5117	36895	
5118	37116	
5119	37401	
5120	37712	
5121	38013	
5122	38283	
5123	38521	
5124	38722	
5125	38874	
5126	38956	
5127	38956	
5128	38880	
5129	38746	
5130	38573	
5131	38366	
5132	38124	
5133	37849	
5134	37558	
5135	37266	
5136	36970	
5137	36634	
5138	36204	
5139	35641	
5140	34962	
5141	34251	
5142	33629	
5143	33197	
5144	32986	
5145	32951	
5146	32998	
5147	33046	
5148	33061	
5149	33053	
5150	33045	
5151	33045	
5152	33036	
5153	33000	
5154	32938	
5155	32873	
5156	32829	
5157	32806	
5158	32778	
5159	32706	
5160	32578	
5161	32423	
5162	32298	
5163	32257	
5164	32321	
5165	32463	
5166	32634	
5167	32788	
5168	32907	
5169	33001	
5170	33086	
5171	33169	
5172	33240	
5173	33284	
5174	33298	
5175	33292	
5176	33281	
5177	33266	
5178	33229	
5179	33152	
5180	33033	
5181	32903	
5182	32812	
5183	32796	
5184	32857	
5185	32957	
5186	33046	
5187	33097	
5188	33123	
5189	33162	
5190	33236	
5191	33332	
5192	33405	
5193	33409	
5194	33340	
5195	33237	
5196	33158	
5197	33134	
5198	33146	
5199	33143	
5200	33082	
5201	32969	
5202	32854	
5203	32799	
5204	32829	
5205	32913	
5206	32995	
5207	33037	
5208	33048	
5209	33076	
5210	33166	
5211	33313	
5212	33465	
5213	33558	
5214	33557	
5215	33485	
5216	33400	
5217	33339	
5218	33300	
5219	33240	
5220	33125	
5221	32966	
5222	32821	
5223	32758	
5224	32806	
5225	32933	
5226	33073	
5227	33178	
5228	33250	
5229	33331	
5230	33458	
5231	33621	
5232	33764	
5233	33821	
5234	33774	
5235	33666	
5236	33571	
5237	33538	
5238	33553	
5239	33554	
5240	33483	
5241	33337	
5242	33175	
5243	33079	
5244	33091	
5245	33189	
5246	33302	
5247	33375	
5248	33402	
5249	33429	
5250	33509	
5251	33650	
5252	33800	
5253	33887	
5254	33867	
5255	33760	
5256	33629	
5257	33535	
5258	33487	
5259	33451	
5260	33382	
5261	33273	
5262	33168	
5263	33125	
5264	33170	
5265	33274	
5266	33371	
5267	33416	
5268	33417	
5269	33429	
5270	33505	
5271	33643	
5272	33783	
5273	33847	
5274	33795	
5275	33659	
5276	33517	
5277	33436	
5278	33420	
5279	33417	
5280	33360	
5281	33231	
5282	33080	
5283	32985	
5284	33000	
5285	33112	
5286	33249	
5287	33341	
5288	33365	
5289	33358	
5290	33379	
5291	33459	
5292	33569	
5293	33645	
5294	33638	
5295	33550	
5296	33433	
5297	33346	
5298	33312	
5299	33304	
5300	33276	
5301	33207	
5302	33119	
5303	33065	
5304	33081	
5305	33159	
5306	33254	
5307	33322	
5308	33357	
5309	33390	
5310	33463	
5311	33578	
5312	33694	
5313	33751	
5314	33716	
5315	33614	
5316	33509	
5317	33457	
5318	33464	
5319	33486	
5320	33465	
5321	33386	
5322	33287	
5323	33237	
5324	33275	
5325	33384	
5326	33499	
5327	33562	
5328	33560	
5329	33539	
5330	33555	
5331	33632	
5332	33733	
5333	33791	
5334	33763	
5335	33661	
5336	33547	
5337	33485	
5338	33487	
5339	33514	
5340	33500	
5341	33415	
5342	33284	
5343	33173	
5344	33137	
5345	33181	
5346	33264	
5347	33335	
5348	33377	
5349	33412	
5350	33480	
5351	33589	
5352	33706	
5353	33772	
5354	33747	
5355	33646	
5356	33523	
5357	33429	
5358	33380	
5359	33343	
5360	33274	
5361	33162	
5362	33044	
5363	32984	
5364	33022	
5365	33146	
5366	33296	
5367	33410	
5368	33467	
5369	33501	
5370	33568	
5371	33700	
5372	33874	
5373	34029	
5374	34110	
5375	34106	
5376	34056	
5377	34011	
5378	33999	
5379	34008	
5380	34006	
5381	33980	
5382	33950	
5383	33959	
5384	34037	
5385	34172	
5386	34323	
5387	34449	
5388	34541	
5389	34632	
5390	34762	
5391	34943	
5392	35142	
5393	35301	
5394	35380	
5395	35384	
5396	35354	
5397	35337	
5398	35347	
5399	35363	
5400	35348	
5401	35291	
5402	35218	
5403	35174	
5404	35188	
5405	35252	
5406	35321	
5407	35356	
5408	35357	
5409	35363	
5410	35421	
5411	35548	
5412	35712	
5413	35847	
5414	35898	
5415	35855	
5416	35752	
5417	35637	
5418	35533	
5419	35435	
5420	35325	
5421	35207	
5422	35112	
5423	35084	
5424	35136	
5425	35239	
5426	35335	
5427	35382	
5428	35380	
5429	35374	
5430	35408	
5431	35489	
5432	35577	
5433	35609	
5434	35551	
5435	35422	
5436	35273	
5437	35152	
5438	35071	
5439	34999	
5440	34905	
5441	34784	
5442	34668	
5443	34602	
5444	34613	
5445	34682	
5446	34766	
5447	34825	
5448	34852	
5449	34873	
5450	34923	
5451	35008	
5452	35098	
5453	35142	
5454	35108	
5455	35002	
5456	34862	
5457	34724	
5458	34600	
5459	34476	
5460	34338	
5461	34198	
5462	34090	
5463	34048	
5464	34075	
5465	34135	
5466	34181	
5467	34196	
5468	34203	
5469	34252	
5470	34372	
5471	34542	
5472	34695	
5473	34768	
5474	34738	
5475	34642	
5476	34538	
5477	34457	
5478	34381	
5479	34259	
5480	34059	
5481	33805	
5482	33573	
5483	33442	
5484	33441	
5485	33530	
5486	33638	
5487	33715	
5488	33771	
5489	33858	
5490	34024	
5491	34261	
5492	34502	
5493	34663	
5494	34697	
5495	34622	
5496	34503	
5497	34394	
5498	34307	
5499	34206	
5500	34055	
5501	33857	
5502	33669	
5503	33562	
5504	33571	
5505	33670	
5506	33790	
5507	33876	
5508	33927	
5509	33994	
5510	34128	
5511	34327	
5512	34524	
5513	34632	
5514	34604	
5515	34469	
5516	34304	
5517	34176	
5518	34085	
5519	33974	
5520	33783	
5521	33512	
5522	33238	
5523	33063	
5524	33045	
5525	33150	
5526	33288	
5527	33374	
5528	33399	
5529	33424	
5530	33522	
5531	33708	
5532	33913	
5533	34033	
5534	34004	
5535	33855	
5536	33675	
5537	33551	
5538	33493	
5539	33436	
5540	33298	
5541	33060	
5542	32791	
5543	32608	
5544	32592	
5545	32727	
5546	32919	
5547	33067	
5548	33134	
5549	33169	
5550	33251	
5551	33418	
5552	33623	
5553	33769	
5554	33778	
5555	33653	
5556	33473	
5557	33327	
5558	33252	
5559	33207	
5560	33119	
5561	32952	
5562	32746	
5563	32590	
5564	32558	
5565	32647	
5566	32787	
5567	32897	
5568	32951	
5569	32991	
5570	33090	
5571	33278	
5572	33507	
5573	33684	
5574	33731	
5575	33649	
5576	33512	
5577	33400	
5578	33344	
5579	33301	
5580	33199	
5581	33014	
5582	32798	
5583	32649	
5584	32643	
5585	32770	
5586	32944	
5587	33067	
5588	33103	
5589	33103	
5590	33159	
5591	33324	
5592	33568	
5593	33795	
5594	33907	
5595	33877	
5596	33750	
5597	33604	
5598	33484	
5599	33378	
5600	33242	
5601	33063	
5602	32882	
5603	32775	
5604	32801	
5605	32946	
5606	33140	
5607	33305	
5608	33413	
5609	33507	
5610	33652	
5611	33873	
5612	34125	
5613	34319	
5614	34384	
5615	34322	
5616	34201	
5617	34095	
5618	34025	
5619	33947	
5620	33797	
5621	33555	
5622	33285	
5623	33094	
5624	33061	
5625	33181	
5626	33369	
5627	33525	
5628	33611	
5629	33667	
5630	33771	
5631	33963	
5632	34199	
5633	34380	
5634	34421	
5635	34316	
5636	34142	
5637	33991	
5638	33906	
5639	33849	
5640	33747	
5641	33564	
5642	33343	
5643	33185	
5644	33167	
5645	33289	
5646	33466	
5647	33594	
5648	33631	
5649	33618	
5650	33639	
5651	33746	
5652	33905	
5653	34021	
5654	34011	
5655	33867	
5656	33665	
5657	33503	
5658	33425	
5659	33393	
5660	33326	
5661	33172	
5662	32960	
5663	32783	
5664	32730	
5665	32818	
5666	32982	
5667	33126	
5668	33196	
5669	33212	
5670	33241	
5671	33332	
5672	33469	
5673	33581	
5674	33597	
5675	33507	
5676	33364	
5677	33243	
5678	33184	
5679	33159	
5680	33108	
5681	32994	
5682	32841	
5683	32722	
5684	32703	
5685	32790	
5686	32925	
5687	33028	
5688	33059	
5689	33045	
5690	33053	
5691	33128	
5692	33256	
5693	33369	
5694	33396	
5695	33314	
5696	33162	
5697	33003	
5698	32874	
5699	32764	
5700	32633	
5701	32458	
5702	32263	
5703	32106	
5704	32034	
5705	32048	
5706	32098	
5707	32126	
5708	32111	
5709	32079	
5710	32080	
5711	32139	
5712	32226	
5713	32281	
5714	32258	
5715	32161	
5716	32046	
5717	31971	
5718	31954	
5719	31959	
5720	31928	
5721	31828	
5722	31686	
5723	31565	
5724	31524	
5725	31570	
5726	31657	
5727	31728	
5728	31757	
5729	31763	
5730	31788	
5731	31851	
5732	31922	
5733	31941	
5734	31863	
5735	31690	
5736	31478	
5737	31287	
5738	31140	
5739	31012	
5740	30857	
5741	30661	
5742	30459	
5743	30319	
5744	30290	
5745	30365	
5746	30484	
5747	30584	
5748	30642	
5749	30687	
5750	30764	
5751	30886	
5752	31009	
5753	31065	
5754	31015	
5755	30886	
5756	30762	
5757	30715	
5758	30760	
5759	30837	
5760	30862	
5761	30792	
5762	30661	
5763	30558	
5764	30555	
5765	30661	
5766	30813	
5767	30929	
5768	30969	
5769	30961	
5770	30972	
5771	31052	
5772	31197	
5773	31348	
5774	31440	
5775	31444	
5776	31386	
5777	31316	
5778	31274	
5779	31260	
5780	31250	
5781	31228	
5782	31207	
5783	31229	
5784	31332	
5785	31522	
5786	31768	
5787	32027	
5788	32270	
5789	32502	
5790	32743	
5791	33006	
5792	33277	
5793	33526	
5794	33732	
5795	33902	
5796	34068	
5797	34248	
5798	34428	
5799	34555	
5800	34572	
5801	34459	
5802	34253	
5803	34039	
5804	33898	
5805	33865	
5806	33919	
5807	34002	
5808	34070	
5809	34119	
5810	34175	
5811	34266	
5812	34391	
5813	34519	
5814	34609	
5815	34643	
5816	34639	
5817	34627	
5818	34631	
5819	34644	
5820	34646	
5821	34623	
5822	34586	
5823	34567	
5824	34592	
5825	34655	
5826	34723	
5827	34752	
5828	34723	
5829	34654	
5830	34584	
5831	34548	
5832	34547	
5833	34556	
5834	34544	
5835	34493	
5836	34413	
5837	34327	
5838	34249	
5839	34181	
5840	34123	
5841	34086	
5842	34098	
5843	34179	
5844	34324	
5845	34493	
5846	34633	
5847	34718	
5848	34764	
5849	34819	
5850	34925	
5851	35078	
5852	35230	
5853	35325	
5854	35343	
5855	35316	
5856	35312	
5857	35377	
5858	35506	
5859	35644	
5860	35725	
5861	35721	
5862	35662	
5863	35609	
5864	35613	
5865	35674	
5866	35754	
5867	35808	
5868	35826	
5869	35840	
5870	35893	
5871	36002	
5872	36135	
5873	36225	
5874	36223	
5875	36131	
5876	36002	
5877	35908	
5878	35885	
5879	35916	
5880	35945	
5881	35930	
5882	35872	
5883	35822	
5884	35839	
5885	35948	
5886	36121	
5887	36298	
5888	36430	
5889	36509	
5890	36568	
5891	36643	
5892	36743	
5893	36837	
5894	36877	
5895	36836	
5896	36728	
5897	36595	
5898	36477	
5899	36388	
5900	36314	
5901	36233	
5902	36145	
5903	36067	
5904	36025	
5905	36024	
5906	36046	
5907	36068	
5908	36083	
5909	36108	
5910	36161	
5911	36239	
5912	36306	
5913	36314	
5914	36238	
5915	36095	
5916	35940	
5917	35825	
5918	35767	
5919	35735	
5920	35683	
5921	35587	
5922	35464	
5923	35364	
5924	35327	
5925	35359	
5926	35425	
5927	35483	
5928	35517	
5929	35545	
5930	35599	
5931	35685	
5932	35776	
5933	35820	
5934	35790	
5935	35704	
5936	35618	
5937	35582	
5938	35604	
5939	35643	
5940	35640	
5941	35570	
5942	35456	
5943	35356	
5944	35320	
5945	35356	
5946	35435	
5947	35516	
5948	35580	
5949	35638	
5950	35709	
5951	35798	
5952	35882	
5953	35919	
5954	35884	
5955	35790	
5956	35678	
5957	35589	
5958	35532	
5959	35478	
5960	35386	
5961	35242	
5962	35080	
5963	34968	
5964	34967	
5965	35094	
5966	35316	
5967	35581	
5968	35847	
5969	36111	
5970	36388	
5971	36686	
5972	36989	
5973	37263	
5974	37481	
5975	37648	
5976	37795	
5977	37959	
5978	38154	
5979	38369	
5980	38589	
5981	38812	
5982	39062	
5983	39363	
5984	39715	
5985	40082	
5986	40398	
5987	40610	
5988	40698	
5989	40684	
5990	40611	
5991	40509	
5992	40368	
5993	40155	
5994	39831	
5995	39399	
5996	38906	
5997	38428	
5998	38016	
5999	37668	
6000	37328	
6001	36933	
6002	36455	
6003	35925	
6004	35412	
6005	34973	
6006	34629	
6007	34360	
6008	34139	
6009	33958	
6010	33826	
6011	33750	
6012	33709	
6013	33658	
6014	33553	
6015	33383	
6016	33184	
6017	33011	
6018	32904	
6019	32864	
6020	32856	
6021	32839	
6022	32796	
6023	32742	
6024	32712	
6025	32725	
6026	32781	
6027	32860	
6028	32943	
6029	33027	
6030	33122	
6031	33233	
6032	33348	
6033	33436	
6034	33468	
6035	33437	
6036	33363	
6037	33284	
6038	33229	
6039	33205	
6040	33196	
6041	33184	
6042	33167	
6043	33160	
6044	33184	
6045	33249	
6046	33341	
6047	33437	
6048	33524	
6049	33605	
6050	33695	
6051	33802	
6052	33914	
6053	34001	
6054	34038	
6055	34019	
6056	33960	
6057	33885	
6058	33805	
6059	33712	
6060	33590	
6061	33438	
6062	33282	
6063	33166	
6064	33129	
6065	33179	
6066	33289	
6067	33417	
6068	33529	
6069	33617	
6070	33688	
6071	33750	
6072	33792	
6073	33794	
6074	33737	
6075	33628	
6076	33498	
6077	33382	
6078	33300	
6079	33247	
6080	33205	
6081	33167	
6082	33144	
6083	33160	
6084	33228	
6085	33335	
6086	33450	
6087	33544	
6088	33613	
6089	33679	
6090	33768	
6091	33889	
6092	34016	
6093	34106	
6094	34124	
6095	34068	
6096	33965	
6097	33849	
6098	33742	
6099	33638	
6100	33524	
6101	33395	
6102	33266	
6103	33163	
6104	33107	
6105	33095	
6106	33109	
6107	33129	
6108	33154	
6109	33193	
6110	33254	
6111	33322	
6112	33367	
6113	33357	
6114	33284	
6115	33175	
6116	33066	
6117	32977	
6118	32898	
6119	32796	
6120	32653	
6121	32491	
6122	32369	
6123	32340	
6124	32417	
6125	32548	
6126	32650	
6127	32654	
6128	32556	
6129	32414	
6130	32307	
6131	32283	
6132	32333	
6133	32403	
6134	32443	
6135	32441	
6136	32425	
6137	32431	
6138	32460	
6139	32473	
6140	32420	
6141	32287	
6142	32123	
6143	32016	
6144	32040	
6145	32207	
6146	32453	
6147	32685	
6148	32833	
6149	32893	
6150	32915	
6151	32959	
6152	33049	
6153	33159	
6154	33239	
6155	33257	
6156	33219	
6157	33154	
6158	33093	
6159	33036	
6160	32966	
6161	32874	
6162	32779	
6163	32729	
6164	32768	
6165	32905	
6166	33103	
6167	33309	
6168	33484	
6169	33631	
6170	33781	
6171	33958	
6172	34152	
6173	34318	
6174	34408	
6175	34403	
6176	34329	
6177	34240	
6178	34183	
6179	34167	
6180	34170	
6181	34162	
6182	34133	
6183	34099	
6184	34083	
6185	34097	
6186	34135	
6187	34182	
6188	34236	
6189	34311	
6190	34425	
6191	34572	
6192	34717	
6193	34805	
6194	34799	
6195	34698	
6196	34545	
6197	34392	
6198	34269	
6199	34172	
6200	34072	
6201	33946	
6202	33803	
6203	33680	
6204	33612	
6205	33609	
6206	33637	
6207	33648	
6208	33609	
6209	33529	
6210	33444	
6211	33392	
6212	33377	
6213	33371	
6214	33330	
6215	33235	
6216	33099	
6217	32961	
6218	32848	
6219	32765	
6220	32687	
6221	32598	
6222	32501	
6223	32423	
6224	32392	
6225	32411	
6226	32452	
6227	32478	
6228	32475	
6229	32461	
6230	32473	
6231	32532	
6232	32623	
6233	32698	
6234	32710	
6235	32642	
6236	32519	
6237	32382	
6238	32250	
6239	32109	
6240	31924	
6241	31678	
6242	31394	
6243	31138	
6244	30981	
6245	30959	
6246	31060	
6247	31236	
6248	31437	
6249	31642	
6250	31847	
6251	32055	
6252	32250	
6253	32402	
6254	32488	
6255	32507	
6256	32485	
6257	32445	
6258	32393	
6259	32314	
6260	32193	
6261	32048	
6262	31934	
6263	31918	
6264	32035	
6265	32265	
6266	32539	
6267	32787	
6268	32979	
6269	33139	
6270	33308	
6271	33503	
6272	33691	
6273	33810	
6274	33818	
6275	33726	
6276	33599	
6277	33509	
6278	33493	
6279	33527	
6280	33557	
6281	33545	
6282	33494	
6283	33440	
6284	33414	
6285	33409	
6286	33388	
6287	33318	
6288	33212	
6289	33135	
6290	33161	
6291	33325	
6292	33592	
6293	33877	
6294	34096	
6295	34213	
6296	34250	
6297	34250	
6298	34230	
6299	34173	
6300	34036	
6301	33801	
6302	33492	
6303	33166	
6304	32878	
6305	32651	
6306	32467	
6307	32303	
6308	32156	
6309	32052	
6310	32023	
6311	32074	
6312	32171	
6313	32254	
6314	32278	
6315	32236	
6316	32157	
6317	32070	
6318	31975	
6319	31846	
6320	31658	
6321	31428	
6322	31223	
6323	31130	
6324	31199	
6325	31413	
6326	31690	
6327	31940	
6328	32121	
6329	32249	
6330	32377	
6331	32533	
6332	32695	
6333	32802	
6334	32804	
6335	32705	
6336	32565	
6337	32458	
6338	32419	
6339	32423	
6340	32410	
6341	32335	
6342	32212	
6343	32103	
6344	32068	
6345	32118	
6346	32204	
6347	32257	
6348	32245	
6349	32201	
6350	32198	
6351	32294	
6352	32478	
6353	32673	
6354	32789	
6355	32779	
6356	32678	
6357	32573	
6358	32543	
6359	32615	
6360	32753	
6361	32901	
6362	33030	
6363	33147	
6364	33284	
6365	33454	
6366	33632	
6367	33765	
6368	33815	
6369	33789	
6370	33737	
6371	33718	
6372	33759	
6373	33842	
6374	33916	
6375	33935	
6376	33881	
6377	33759	
6378	33577	
6379	33334	
6380	33031	
6381	32703	
6382	32437	
6383	32351	
6384	32536	
6385	32996	
6386	33629	
6387	34264	
6388	34747	
6389	35010	
6390	35097	
6391	35114	
6392	35164	
6393	35284	
6394	35444	
6395	35580	
6396	35645	
6397	35636	
6398	35587	
6399	35541	
6400	35521	
6401	35532	
6402	35575	
6403	35654	
6404	35779	
6405	35945	
6406	36121	
6407	36257	
6408	36305	
6409	36246	
6410	36095	
6411	35894	
6412	35677	
6413	35465	
6414	35256	
6415	35048	
6416	34844	
6417	34655	
6418	34492	
6419	34352	
6420	34224	
6421	34097	
6422	33973	
6423	33870	
6424	33808	
6425	33798	
6426	33830	
6427	33886	
6428	33952	
6429	34020	
6430	34095	
6431	34181	
6432	34272	
6433	34355	
6434	34417	
6435	34450	
6436	34455	
6437	34437	
6438	34397	
6439	34335	
6440	34257	
6441	34176	
6442	34115	
6443	34094	
6444	34122	
6445	34186	
6446	34264	
6447	34337	
6448	34401	
6449	34470	
6450	34556	
6451	34662	
6452	34770	
6453	34852	
6454	34888	
6455	34873	
6456	34821	
6457	34752	
6458	34684	
6459	34630	
6460	34594	
6461	34583	
6462	34605	
6463	34664	
6464	34760	
6465	34888	
6466	35036	
6467	35192	
6468	35352	
6469	35513	
6470	35671	
6471	35819	
6472	35944	
6473	36033	
6474	36083	
6475	36094	
6476	36076	
6477	36038	
6478	35986	
6479	35919	
6480	35838	
6481	35743	
6482	35643	
6483	35553	
6484	35487	
6485	35454	
6486	35448	
6487	35453	
6488	35450	
6489	35431	
6490	35402	
6491	35377	
6492	35366	
6493	35362	
6494	35346	
6495	35298	
6496	35209	
6497	35090	
6498	34963	
6499	34848	
6500	34752	
6501	34668	
6502	34584	
6503	34486	
6504	34371	
6505	34243	
6506	34111	
6507	33994	
6508	33909	
6509	33868	
6510	33873	
6511	33908	
6512	33949	
6513	33975	
6514	33984	
6515	33990	
6516	34016	
6517	34070	
6518	34139	
6519	34198	
6520	34226	
6521	34223	
6522	34210	
6523	34216	
6524	34252	
6525	34310	
6526	34369	
6527	34411	
6528	34440	
6529	34469	
6530	34514	
6531	34568	
6532	34607	
6533	34601	
6534	34538	
6535	34433	
6536	34318	
6537	34218	
6538	34137	
6539	34056	
6540	33955	
6541	33837	
6542	33726	
6543	33660	
6544	33657	
6545	33708	
6546	33783	
6547	33853	
6548	33914	
6549	33989	
6550	34104	
6551	34267	
6552	34457	
6553	34633	
6554	34764	
6555	34844	
6556	34893	
6557	34938	
6558	34989	
6559	35035	
6560	35055	
6561	35047	
6562	35034	
6563	35056	
6564	35137	
6565	35266	
6566	35393	
6567	35462	
6568	35450	
6569	35380	
6570	35308	
6571	35291	
6572	35348	
6573	35457	
6574	35573	
6575	35655	
6576	35686	
6577	35673	
6578	35635	
6579	35588	
6580	35542	
6581	35510	
6582	35513	
6583	35579	
6584	35724	
6585	35939	
6586	36195	
6587	36446	
6588	36661	
6589	36830	
6590	36967	
6591	37087	
6592	37192	
6593	37269	
6594	37304	
6595	37303	
6596	37291	
6597	37300	
6598	37348	
6599	37429	
6600	37521	
6601	37610	
6602	37709	
6603	37860	
6604	38107	
6605	38474	
6606	38944	
6607	39464	
6608	39979	
6609	40450	
6610	40867	
6611	41233	
6612	41539	
6613	41759	
6614	41860	
6615	41836	
6616	41715	
6617	41551	
6618	41394	
6619	41262	
6620	41144	
6621	41020	
6622	40887	
6623	40763	
6624	40677	
6625	40643	
6626	40656	
6627	40695	
6628	40742	
6629	40789	
6630	40833	
6631	40877	
6632	40910	
6633	40914	
6634	40868	
6635	40770	
6636	40638	
6637	40509	
6638	40411	
6639	40347	
6640	40298	
6641	40237	
6642	40160	
6643	40087	
6644	40052	
6645	40071	
6646	40130	
6647	40194	
6648	40233	
6649	40242	
6650	40235	
6651	40230	
6652	40224	
6653	40200	
6654	40135	
6655	40023	
6656	39878	
6657	39733	
6658	39616	
6659	39543	
6660	39512	
6661	39506	
6662	39505	
6663	39493	
6664	39467	
6665	39438	
6666	39420	
6667	39421	
6668	39441	
6669	39475	
6670	39522	
6671	39586	
6672	39670	
6673	39767	
6674	39849	
6675	39891	
6676	39882	
6677	39836	
6678	39779	
6679	39731	
6680	39684	
6681	39616	
6682	39509	
6683	39377	
6684	39258	
6685	39191	
6686	39184	
6687	39211	
6688	39230	
6689	39217	
6690	39187	
6691	39177	
6692	39205	
6693	39246	
6694	39247	
6695	39160	
6696	38988	
6697	38783	
6698	38611	
6699	38509	
6700	38463	
6701	38430	
6702	38377	
6703	38302	
6704	38237	
6705	38217	
6706	38251	
6707	38317	
6708	38378	
6709	38409	
6710	38414	
6711	38419	
6712	38450	
6713	38509	
6714	38571	
6715	38599	
6716	38574	
6717	38505	
6718	38420	
6719	38339	
6720	38259	
6721	38162	
6722	38035	
6723	37891	
6724	37764	
6725	37689	
6726	37684	
6727	37740	
6728	37830	
6729	37931	
6730	38028	
6731	38115	
6732	38184	
6733	38225	
6734	38225	
6735	38186	
6736	38126	
6737	38070	
6738	38031	
6739	37998	
6740	37944	
6741	37854	
6742	37739	
6743	37635	
6744	37575	
6745	37566	
6746	37578	
6747	37572	
6748	37528	
6749	37461	
6750	37410	
6751	37404	
6752	37442	
6753	37488	
6754	37496	
6755	37446	
6756	37355	
6757	37262	
6758	37195	
6759	37149	
6760	37091	
6761	37000	
6762	36884	
6763	36785	
6764	36744	
6765	36768	
6766	36821	
6767	36853	
6768	36835	
6769	36779	
6770	36729	
6771	36716	
6772	36737	
6773	36757	
6774	36738	
6775	36670	
6776	36576	
6777	36488	
6778	36419	
6779	36352	
6780	36262	
6781	36144	
6782	36027	
6783	35950	
6784	35938	
6785	35978	
6786	36032	
6787	36070	
6788	36087	
6789	36105	
6790	36146	
6791	36211	
6792	36269	
6793	36281	
6794	36227	
6795	36119	
6796	35999	
6797	35903	
6798	35845	
6799	35804	
6800	35749	
6801	35663	
6802	35566	
6803	35495	
6804	35484	
6805	35536	
6806	35621	
6807	35704	
6808	35767	
6809	35823	
6810	35898	
6811	36000	
6812	36107	
6813	36183	
6814	36200	
6815	36169	
6816	36128	
6817	36117	
6818	36145	
6819	36191	
6820	36219	
6821	36214	
6822	36190	
6823	36183	
6824	36215	
6825	36281	
6826	36349	
6827	36389	
6828	36394	
6829	36380	
6830	36373	
6831	36379	
6832	36380	
6833	36354	
6834	36295	
6835	36230	
6836	36203	
6837	36250	
6838	36374	
6839	36546	
6840	36728	
6841	36897	
6842	37061	
6843	37244	
6844	37463	
6845	37718	
6846	37992	
6847	38265	
6848	38534	
6849	38811	
6850	39111	
6851	39435	
6852	39769	
6853	40095	
6854	40410	
6855	40728	
6856	41066	
6857	41413	
6858	41723	
6859	41932	
6860	42001	
6861	41944	
6862	41826	
6863	41713	
6864	41636	
6865	41572	
6866	41471	
6867	41292	
6868	41040	
6869	40752	
6870	40473	
6871	40220	
6872	39970	
6873	39675	
6874	39287	
6875	38788	
6876	38205	
6877	37595	
6878	37025	
6879	36540	
6880	36152	
6881	35852	
6882	35629	
6883	35480	
6884	35397	
6885	35358	
6886	35326	
6887	35275	
6888	35212	
6889	35176	
6890	35207	
6891	35308	
6892	35433	
6893	35514	
6894	35508	
6895	35431	
6896	35343	
6897	35297	
6898	35299	
6899	35308	
6900	35270	
6901	35172	
6902	35054	
6903	34979	
6904	34987	
6905	35067	
6906	35164	
6907	35228	
6908	35248	
6909	35256	
6910	35295	
6911	35383	
6912	35497	
6913	35587	
6914	35618	
6915	35585	
6916	35514	
6917	35433	
6918	35353	
6919	35261	
6920	35149	
6921	35024	
6922	34921	
6923	34875	
6924	34901	
6925	34979	
6926	35064	
6927	35125	
6928	35157	
6929	35187	
6930	35243	
6931	35332	
6932	35424	
6933	35477	
6934	35465	
6935	35396	
6936	35309	
6937	35243	
6938	35211	
6939	35192	
6940	35156	
6941	35087	
6942	35002	
6943	34938	
6944	34922	
6945	34953	
6946	35004	
6947	35042	
6948	35054	
6949	35051	
6950	35054	
6951	35070	
6952	35085	
6953	35074	
6954	35027	
6955	34955	
6956	34885	
6957	34837	
6958	34807	
6959	34770	
6960	34705	
6961	34615	
6962	34532	
6963	34496	
6964	34528	
6965	34608	
6966	34692	
6967	34734	
6968	34719	
6969	34669	
6970	34626	
6971	34622	
6972	34654	
6973	34689	
6974	34689	
6975	34637	
6976	34551	
6977	34464	
6978	34403	
6979	34365	
6980	34326	
6981	34263	
6982	34176	
6983	34093	
6984	34045	
6985	34044	
6986	34075	
6987	34108	
6988	34124	
6989	34131	
6990	34151	
6991	34199	
6992	34263	
6993	34307	
6994	34298	
6995	34231	
6996	34132	
6997	34042	
6998	33983	
6999	33947	
7000	33902	
7001	33824	
7002	33720	
7003	33623	
7004	33572	
7005	33584	
7006	33643	
7007	33720	
7008	33792	
7009	33859	
7010	33937	
7011	34032	
7012	34131	
7013	34207	
7014	34232	
7015	34202	
7016	34136	
7017	34061	
7018	33995	
7019	33937	
7020	33875	
7021	33803	
7022	33734	
7023	33690	
7024	33692	
7025	33738	
7026	33805	
7027	33865	
7028	33905	
7029	33934	
7030	33973	
7031	34037	
7032	34116	
7033	34181	
7034	34209	
7035	34193	
7036	34149	
7037	34099	
7038	34051	
7039	33993	
7040	33910	
7041	33799	
7042	33684	
7043	33605	
7044	33590	
7045	33637	
7046	33713	
7047	33778	
7048	33810	
7049	33818	
7050	33831	
7051	33870	
7052	33929	
7053	33983	
7054	34005	
7055	33984	
7056	33934	
7057	33874	
7058	33815	
7059	33754	
7060	33680	
7061	33598	
7062	33530	
7063	33507	
7064	33545	
7065	33628	
7066	33718	
7067	33776	
7068	33792	
7069	33791	
7070	33815	
7071	33886	
7072	33989	
7073	34077	
7074	34103	
7075	34051	
7076	33949	
7077	33843	
7078	33770	
7079	33734	
7080	33708	
7081	33670	
7082	33619	
7083	33577	
7084	33572	
7085	33612	
7086	33675	
7087	33733	
7088	33768	
7089	33793	
7090	33837	
7091	33917	
7092	34020	
7093	34108	
7094	34144	
7095	34117	
7096	34051	
7097	33986	
7098	33944	
7099	33914	
7100	33867	
7101	33782	
7102	33671	
7103	33580	
7104	33552	
7105	33599	
7106	33691	
7107	33773	
7108	33808	
7109	33802	
7110	33798	
7111	33838	
7112	33932	
7113	34042	
7114	34111	
7115	34101	
7116	34016	
7117	33897	
7118	33790	
7119	33717	
7120	33670	
7121	33624	
7122	33568	
7123	33515	
7124	33487	
7125	33500	
7126	33546	
7127	33602	
7128	33650	
7129	33689	
7130	33735	
7131	33804	
7132	33894	
7133	33982	
7134	34040	
7135	34054	
7136	34029	
7137	33986	
7138	33939	
7139	33887	
7140	33823	
7141	33744	
7142	33666	
7143	33617	
7144	33617	
7145	33663	
7146	33728	
7147	33783	
7148	33818	
7149	33848	
7150	33899	
7151	33983	
7152	34083	
7153	34158	
7154	34175	
7155	34128	
7156	34046	
7157	33968	
7158	33918	
7159	33883	
7160	33831	
7161	33743	
7162	33632	
7163	33545	
7164	33522	
7165	33572	
7166	33664	
7167	33745	
7168	33784	
7169	33789	
7170	33797	
7171	33840	
7172	33914	
7173	33986	
7174	34013	
7175	33978	
7176	33902	
7177	33826	
7178	33776	
7179	33749	
7180	33718	
7181	33661	
7182	33584	
7183	33525	
7184	33522	
7185	33587	
7186	33694	
7187	33794	
7188	33856	
7189	33881	
7190	33901	
7191	33949	
7192	34028	
7193	34106	
7194	34140	
7195	34108	
7196	34025	
7197	33931	
7198	33859	
7199	33810	
7200	33757	
7201	33675	
7202	33568	
7203	33474	
7204	33444	
7205	33498	
7206	33611	
7207	33727	
7208	33798	
7209	33818	
7210	33821	
7211	33851	
7212	33926	
7213	34021	
7214	34088	
7215	34095	
7216	34043	
7217	33971	
7218	33919	
7219	33899	
7220	33892	
7221	33867	
7222	33813	
7223	33755	
7224	33736	
7225	33784	
7226	33885	
7227	33999	
7228	34083	
7229	34128	
7230	34161	
7231	34218	
7232	34314	
7233	34425	
7234	34503	
7235	34515	
7236	34464	
7237	34387	
7238	34323	
7239	34287	
7240	34266	
7241	34236	
7242	34195	
7243	34169	
7244	34195	
7245	34291	
7246	34433	
7247	34572	
7248	34668	
7249	34719	
7250	34761	
7251	34837	
7252	34956	
7253	35082	
7254	35158	
7255	35147	
7256	35063	
7257	34963	
7258	34907	
7259	34917	
7260	34965	
7261	34997	
7262	34977	
7263	34918	
7264	34867	
7265	34878	
7266	34964	
7267	35095	
7268	35222	
7269	35314	
7270	35376	
7271	35439	
7272	35526	
7273	35635	
7274	35737	
7275	35797	
7276	35802	
7277	35767	
7278	35717	
7279	35673	
7280	35635	
7281	35595	
7282	35549	
7283	35510	
7284	35501	
7285	35543	
7286	35630	
7287	35738	
7288	35835	
7289	35907	
7290	35964	
7291	36027	
7292	36110	
7293	36200	
7294	36264	
7295	36272	
7296	36216	
7297	36118	
7298	36013	
7299	35926	
7300	35854	
7301	35779	
7302	35690	
7303	35600	
7304	35537	
7305	35525	
7306	35558	
7307	35607	
7308	35639	
7309	35641	
7310	35629	
7311	35629	
7312	35656	
7313	35697	
7314	35724	
7315	35712	
7316	35654	
7317	35566	
7318	35464	
7319	35357	
7320	35239	
7321	35103	
7322	34958	
7323	34828	
7324	34741	
7325	34712	
7326	34727	
7327	34756	
7328	34773	
7329	34771	
7330	34763	
7331	34768	
7332	34792	
7333	34821	
7334	34829	
7335	34801	
7336	34737	
7337	34656	
7338	34577	
7339	34508	
7340	34444	
7341	34374	
7342	34295	
7343	34215	
7344	34151	
7345	34117	
7346	34116	
7347	34139	
7348	34176	
7349	34217	
7350	34264	
7351	34315	
7352	34367	
7353	34408	
7354	34425	
7355	34416	
7356	34389	
7357	34361	
7358	34339	
7359	34312	
7360	34260	
7361	34173	
7362	34066	
7363	33976	
7364	33944	
7365	33983	
7366	34070	
7367	34161	
7368	34225	
7369	34263	
7370	34303	
7371	34369	
7372	34458	
7373	34537	
7374	34566	
7375	34534	
7376	34465	
7377	34403	
7378	34375	
7379	34366	
7380	34335	
7381	34247	
7382	34109	
7383	33970	
7384	33889	
7385	33893	
7386	33961	
7387	34042	
7388	34095	
7389	34116	
7390	34135	
7391	34182	
7392	34260	
7393	34337	
7394	34372	
7395	34352	
7396	34299	
7397	34252	
7398	34231	
7399	34220	
7400	34179	
7401	34090	
7402	33973	
7403	33889	
7404	33887	
7405	33975	
7406	34104	
7407	34201	
7408	34225	
7409	34191	
7410	34156	
7411	34180	
7412	34279	
7413	34427	
7414	34580	
7415	34713	
7416	34832	
7417	34953	
7418	35060	
7419	35099	
7420	35000	
7421	34728	
7422	34323	
7423	33889	
7424	33546	
7425	33368	
7426	33347	
7427	33412	
7428	33482	
7429	33515	
7430	33519	
7431	33533	
7432	33583	
7433	33661	
7434	33738	
7435	33784	
7436	33791	
7437	33771	
7438	33736	
7439	33689	
7440	33619	
7441	33519	
7442	33400	
7443	33288	
7444	33212	
7445	33184	
7446	33196	
7447	33223	
7448	33248	
7449	33267	
7450	33290	
7451	33322	
7452	33358	
7453	33381	
7454	33378	
7455	33352	
7456	33325	
7457	33319	
7458	33340	
7459	33363	
7460	33351	
7461	33279	
7462	33157	
7463	33028	
7464	32945	
7465	32940	
7466	33006	
7467	33106	
7468	33197	
7469	33263	
7470	33309	
7471	33355	
7472	33407	
7473	33450	
7474	33460	
7475	33425	
7476	33356	
7477	33285	
7478	33240	
7479	33223	
7480	33215	
7481	33188	
7482	33134	
7483	33074	
7484	33047	
7485	33086	
7486	33191	
7487	33331	
7488	33463	
7489	33563	
7490	33631	
7491	33690	
7492	33759	
7493	33831	
7494	33881	
7495	33879	
7496	33818	
7497	33721	
7498	33624	
7499	33562	
7500	33540	
7501	33543	
7502	33552	
7503	33556	
7504	33558	
7505	33571	
7506	33600	
7507	33640	
7508	33683	
7509	33732	
7510	33792	
7511	33871	
7512	33958	
7513	34024	
7514	34030	
7515	33952	
7516	33792	
7517	33579	
7518	33348	
7519	33131	
7520	32943	
7521	32788	
7522	32674	
7523	32608	
7524	32590	
7525	32602	
7526	32614	
7527	32599	
7528	32552	
7529	32501	
7530	32485	
7531	32533	
7532	32633	
7533	32742	
7534	32813	
7535	32827	
7536	32810	
7537	32810	
7538	32866	
7539	32975	
7540	33098	
7541	33188	
7542	33226	
7543	33236	
7544	33265	
7545	33346	
7546	33474	
7547	33611	
7548	33717	
7549	33777	
7550	33809	
7551	33845	
7552	33897	
7553	33940	
7554	33935	
7555	33854	
7556	33709	
7557	33543	
7558	33401	
7559	33299	
7560	33212	
7561	33104	
7562	32953	
7563	32779	
7564	32628	
7565	32544	
7566	32532	
7567	32563	
7568	32592	
7569	32596	
7570	32589	
7571	32603	
7572	32655	
7573	32730	
7574	32791	
7575	32805	
7576	32776	
7577	32740	
7578	32740	
7579	32793	
7580	32872	
7581	32932	
7582	32942	
7583	32908	
7584	32871	
7585	32873	
7586	32924	
7587	32993	
7588	33034	
7589	33013	
7590	32936	
7591	32841	
7592	32768	
7593	32738	
7594	32738	
7595	32739	
7596	32716	
7597	32664	
7598	32588	
7599	32497	
7600	32394	
7601	32279	
7602	32160	
7603	32058	
7604	31998	
7605	31993	
7606	32031	
7607	32083	
7608	32122	
7609	32144	
7610	32163	
7611	32202	
7612	32265	
7613	32329	
7614	32357	
7615	32323	
7616	32230	
7617	32113	
7618	32007	
7619	31931	
7620	31870	
7621	31795	
7622	31689	
7623	31566	
7624	31459	
7625	31403	
7626	31406	
7627	31446	
7628	31489	
7629	31514	
7630	31528	
7631	31551	
7632	31596	
7633	31649	
7634	31675	
7635	31642	
7636	31547	
7637	31420	
7638	31303	
7639	31222	
7640	31182	
7641	31167	
7642	31167	
7643	31189	
7644	31248	
7645	31349	
7646	31475	
7647	31592	
7648	31671	
7649	31713	
7650	31745	
7651	31803	
7652	31900	
7653	32010	
7654	32090	
7655	32103	
7656	32050	
7657	31968	
7658	31906	
7659	31895	
7660	31929	
7661	31979	
7662	32016	
7663	32032	
7664	32043	
7665	32072	
7666	32127	
7667	32200	
7668	32271	
7669	32332	
7670	32391	
7671	32465	
7672	32561	
7673	32664	
7674	32745	
7675	32778	
7676	32759	
7677	32709	
7678	32662	
7679	32639	
7680	32640	
7681	32646	
7682	32642	
7683	32629	
7684	32626	
7685	32652	
7686	32714	
7687	32799	
7688	32886	
7689	32959	
7690	33021	
7691	33077	
7692	33131	
7693	33171	
7694	33180	
7695	33151	
7696	33094	
7697	33033	
7698	32994	
7699	32987	
7700	33010	
7701	33062	
7702	33157	
7703	33322	
7704	33582	
7705	33932	
7706	34329	
7707	34713	
7708	35036	
7709	35294	
7710	35526	
7711	35784	
7712	36096	
7713	36442	
7714	36772	
7715	37042	
7716	37251	
7717	37446	
7718	37694	
7719	38041	
7720	38481	
7721	38964	
7722	39420	
7723	39801	
7724	40094	
7725	40316	
7726	40487	
7727	40610	
7728	40673	
7729	40662	
7730	40577	
7731	40436	
7732	40262	
7733	40075	
7734	39878	
7735	39666	
7736	39432	
7737	39167	
7738	38857	
7739	38479	
7740	38012	
7741	37459	
7742	36868	
7743	36321	
7744	35902	
7745	35653	
7746	35546	
7747	35507	
7748	35460	
7749	35376	
7750	35273	
7751	35193	
7752	35156	
7753	35144	
7754	35122	
7755	35067	
7756	34988	
7757	34909	
7758	34841	
7759	34763	
7760	34644	
7761	34463	
7762	34241	
7763	34025	
7764	33861	
7765	33764	
7766	33714	
7767	33681	
7768	33645	
7769	33617	
7770	33620	
7771	33664	
7772	33733	
7773	33789	
7774	33803	
7775	33769	
7776	33715	
7777	33673	
7778	33655	
7779	33647	
7780	33619	
7781	33555	
7782	33466	
7783	33389	
7784	33355	
7785	33368	
7786	33402	
7787	33421	
7788	33411	
7789	33388	
7790	33388	
7791	33431	
7792	33505	
7793	33568	
7794	33579	
7795	33527	
7796	33440	
7797	33360	
7798	33311	
7799	33283	
7800	33237	
7801	33150	
7802	33036	
7803	32949	
7804	32946	
7805	33053	
7806	33234	
7807	33423	
7808	33558	
7809	33625	
7810	33659	
7811	33714	
7812	33815	
7813	33944	
7814	34049	
7815	34084	
7816	34042	
7817	33955	
7818	33868	
7819	33806	
7820	33759	
7821	33698	
7822	33605	
7823	33487	
7824	33376	
7825	33301	
7826	33270	
7827	33269	
7828	33275	
7829	33285	
7830	33311	
7831	33367	
7832	33449	
7833	33525	
7834	33554	
7835	33513	
7836	33413	
7837	33292	
7838	33188	
7839	33116	
7840	33064	
7841	33014	
7842	32965	
7843	32941	
7844	32972	
7845	33066	
7846	33196	
7847	33311	
7848	33373	
7849	33380	
7850	33372	
7851	33400	
7852	33486	
7853	33606	
7854	33704	
7855	33729	
7856	33666	
7857	33542	
7858	33407	
7859	33295	
7860	33213	
7861	33151	
7862	33096	
7863	33059	
7864	33059	
7865	33102	
7866	33168	
7867	33212	
7868	33193	
7869	33106	
7870	32992	
7871	32916	
7872	32934	
7873	33053	
7874	33235	
7875	33416	
7876	33537	
7877	33576	
7878	33544	
7879	33473	
7880	33402	
7881	33361	
7882	33369	
7883	33439	
7884	33569	
7885	33747	
7886	33945	
7887	34133	
7888	34292	
7889	34419	
7890	34525	
7891	34620	
7892	34703	
7893	34755	
7894	34759	
7895	34708	
7896	34618	
7897	34510	
7898	34399	
7899	34281	
7900	34140	
7901	33963	
7902	33765	
7903	33585	
7904	33467	
7905	33438	
7906	33489	
7907	33583	
7908	33680	
7909	33759	
7910	33825	
7911	33893	
7912	33972	
7913	34051	
7914	34108	
7915	34130	
7916	34122	
7917	34100	
7918	34076	
7919	34046	
7920	33995	
7921	33911	
7922	33808	
7923	33721	
7924	33683	
7925	33706	
7926	33765	
7927	33822	
7928	33847	
7929	33849	
7930	33863	
7931	33923	
7932	34038	
7933	34175	
7934	34287	
7935	34339	
7936	34332	
7937	34296	
7938	34270	
7939	34270	
7940	34291	
7941	34311	
7942	34319	
7943	34325	
7944	34346	
7945	34391	
7946	34445	
7947	34480	
7948	34471	
7949	34419	
7950	34350	
7951	34297	
7952	34273	
7953	34264	
7954	34243	
7955	34188	
7956	34105	
7957	34025	
7958	33975	
7959	33960	
7960	33958	
7961	33940	
7962	33896	
7963	33848	
7964	33839	
7965	33903	
7966	34037	
7967	34205	
7968	34360	
7969	34479	
7970	34566	
7971	34646	
7972	34736	
7973	34822	
7974	34876	
7975	34874	
7976	34821	
7977	34749	
7978	34692	
7979	34660	
7980	34634	
7981	34577	
7982	34473	
7983	34335	
7984	34207	
7985	34130	
7986	34123	
7987	34169	
7988	34234	
7989	34290	
7990	34328	
7991	34357	
7992	34386	
7993	34410	
7994	34423	
7995	34422	
7996	34424	
7997	34454	
7998	34525	
7999	34618	
8000	34696	
8001	34729	
8002	34728	
8003	34752	
8004	34872	
8005	35126	
8006	35486	
8007	35865	
8008	36170	
8009	36350	
8010	36423	
8011	36460	
8012	36531	
8013	36665	
8014	36842	
8015	37012	
8016	37137	
8017	37205	
8018	37234	
8019	37243	
8020	37235	
8021	37203	
8022	37139	
8023	37056	
8024	36985	
8025	36956	
8026	36980	
8027	37043	
8028	37114	
8029	37175	
8030	37227	
8031	37282	
8032	37348	
8033	37407	
8034	37426	
8035	37381	
8036	37273	
8037	37132	
8038	36992	
8039	36865	
8040	36732	
8041	36567	
8042	36360	
8043	36144	
8044	35972	
8045	35887	
8046	35889	
8047	35938	
8048	35982	
8049	35992	
8050	35974	
8051	35960	
8052	35972	
8053	36004	
8054	36021	
8055	35992	
8056	35908	
8057	35793	
8058	35680	
8059	35588	
8060	35508	
8061	35412	
8062	35282	
8063	35127	
8064	34979	
8065	34876	
8066	34833	
8067	34836	
8068	34856	
8069	34871	
8070	34881	
8071	34902	
8072	34943	
8073	34989	
8074	35010	
8075	34979	
8076	34897	
8077	34794	
8078	34706	
8079	34654	
8080	34627	
8081	34599	
8082	34547	
8083	34477	
8084	34413	
8085	34380	
8086	34381	
8087	34401	
8088	34421	
8089	34438	
8090	34470	
8091	34535	
8092	34634	
8093	34735	
8094	34796	
8095	34786	
8096	34709	
8097	34602	
8098	34501	
8099	34426	
8100	34364	
8101	34291	
8102	34196	
8103	34095	
8104	34020	
8105	33992	
8106	34004	
8107	34029	
8108	34039	
8109	34030	
8110	34020	
8111	34033	
8112	34071	
8113	34112	
8114	34124	
8115	34087	
8116	34011	
8117	33925	
8118	33855	
8119	33803	
8120	33750	
8121	33678	
8122	33587	
8123	33502	
8124	33455	
8125	33461	
8126	33505	
8127	33556	
8128	33585	
8129	33588	
8130	33586	
8131	33604	
8132	33651	
8133	33713	
8134	33768	
8135	33799	
8136	33807	
8137	33804	
8138	33800	
8139	33793	
8140	33768	
8141	33718	
8142	33649	
8143	33588	
8144	33560	
8145	33577	
8146	33627	
8147	33685	
8148	33726	
8149	33749	
8150	33769	
8151	33803	
8152	33855	
8153	33909	
8154	33936	
8155	33919	
8156	33857	
8157	33773	
8158	33693	
8159	33629	
8160	33578	
8161	33527	
8162	33472	
8163	33419	
8164	33381	
8165	33369	
8166	33383	
8167	33416	
8168	33462	
8169	33525	
8170	33615	
8171	33729	
8172	33852	
8173	33955	
8174	34012	
8175	34019	
8176	34000	
8177	33987	
8178	34007	
8179	34063	
8180	34139	
8181	34216	
8182	34292	
8183	34384	
8184	34516	
8185	34698	
8186	34914	
8187	35128	
8188	35312	
8189	35456	
8190	35573	
8191	35686	
8192	35801	
8193	35905	
8194	35972	
8195	35989	
8196	35969	
8197	35944	
8198	35944	
8199	35979	
8200	36036	
8201	36092	
8202	36137	
8203	36183	
8204	36259	
8205	36390	
8206	36579	
8207	36807	
8208	37040	
8209	37255	
8210	37450	
8211	37635	
8212	37824	
8213	38012	
8214	38176	
8215	38292	
8216	38353	
8217	38377	
8218	38387	
8219	38402	
8220	38423	
8221	38444	
8222	38464	
8223	38490	
8224	38528	
8225	38575	
8226	38615	
8227	38634	
8228	38638	
8229	38652	
8230	38705	
8231	38807	
8232	38930	
8233	39026	
8234	39052	
8235	38998	
8236	38896	
8237	38798	
8238	38740	
8239	38722	
8240	38705	
8241	38645	
8242	38532	
8243	38404	
8244	38325	
8245	38343	
8246	38448	
8247	38580	
8248	38675	
8249	38712	
8250	38726	
8251	38771	
8252	38862	
8253	38954	
8254	38974	
8255	38881	
8256	38701	
8257	38509	
8258	38370	
8259	38287	
8260	38202	
8261	38049	
8262	37814	
8263	37551	
8264	37342	
8265	37235	
8266	37213	
8267	37215	
8268	37188	
8269	37128	
8270	37079	
8271	37092	
8272	37183	
8273	37324	
8274	37464	
8275	37574	
8276	37661	
8277	37752	
8278	37863	
8279	37976	
8280	38054	
8281	38066	
8282	38022	
8283	37968	
8284	37957	
8285	38012	
8286	38112	
8287	38214	
8288	38290	
8289	38348	
8290	38422	
8291	38534	
8292	38672	
8293	38791	
8294	38849	
8295	38842	
8296	38805	
8297	38782	
8298	38797	
8299	38828	
8300	38835	
8301	38786	
8302	38686	
8303	38575	
8304	38495	
8305	38469	
8306	38485	
8307	38514	
8308	38535	
8309	38545	
8310	38560	
8311	38591	
8312	38631	
8313	38653	
8314	38631	
8315	38561	
8316	38465	
8317	38378	
8318	38318	
8319	38281	
8320	38242	
8321	38187	
8322	38123	
8323	38078	
8324	38079	
8325	38130	
8326	38208	
8327	38278	
8328	38312	
8329	38307	
8330	38290	
8331	38298	
8332	38356	
8333	38453	
8334	38547	
8335	38592	
8336	38569	
8337	38499	
8338	38425	
8339	38382	
8340	38366	
8341	38346	
8342	38291	
8343	38200	
8344	38106	
8345	38049	
8346	38043	
8347	38068	
8348	38087	
8349	38082	
8350	38066	
8351	38073	
8352	38120	
8353	38188	
8354	38235	
8355	38222	
8356	38143	
8357	38023	
8358	37895	
8359	37778	
8360	37661	
8361	37530	
8362	37377	
8363	37220	
8364	37084	
8365	36989	
8366	36931	
8367	36892	
8368	36856	
8369	36819	
8370	36795	
8371	36799	
8372	36831	
8373	36867	
8374	36873	
8375	36825	
8376	36726	
8377	36606	
8378	36501	
8379	36429	
8380	36382	
8381	36336	
8382	36272	
8383	36198	
8384	36145	
8385	36145	
8386	36210	
8387	36317	
8388	36431	
8389	36526	
8390	36607	
8391	36699	
8392	36826	
8393	36984	
8394	37143	
8395	37265	
8396	37335	
8397	37366	
8398	37388	
8399	37423	
8400	37465	
8401	37493	
8402	37490	
8403	37466	
8404	37453	
8405	37479	
8406	37550	
8407	37642	
8408	37723	
8409	37779	
8410	37822	
8411	37878	
8412	37957	
8413	38041	
8414	38092	
8415	38080	
8416	38003	
8417	37887	
8418	37768	
8419	37664	
8420	37576	
8421	37486	
8422	37384	
8423	37272	
8424	37168	
8425	37089	
8426	37038	
8427	37008	
8428	36981	
8429	36950	
8430	36916	
8431	36893	
8432	36891	
8433	36904	
8434	36912	
8435	36891	
8436	36823	
8437	36713	
8438	36578	
8439	36437	
8440	36296	
8441	36153	
8442	36010	
8443	35881	
8444	35791	
8445	35754	
8446	35762	
8447	35786	
8448	35796	
8449	35779	
8450	35754	
8451	35749	
8452	35782	
8453	35836	
8454	35877	
8455	35872	
8456	35816	
8457	35728	
8458	35636	
8459	35553	
8460	35476	
8461	35394	
8462	35306	
8463	35228	
8464	35177	
8465	35160	
8466	35169	
8467	35188	
8468	35214	
8469	35266	
8470	35373	
8471	35548	
8472	35762	
8473	35950	
8474	36040	
8475	35992	
8476	35828	
8477	35622	
8478	35461	
8479	35395	
8480	35417	
8481	35465	
8482	35474	
8483	35419	
8484	35328	
8485	35267	
8486	35295	
8487	35419	
8488	35598	
8489	35765	
8490	35875	
8491	35925	
8492	35949	
8493	35987	
8494	36052	
8495	36127	
8496	36181	
8497	36194	
8498	36172	
8499	36142	
8500	36126	
8501	36126	
8502	36129	
8503	36114	
8504	36078	
8505	36035	
8506	36013	
8507	36032	
8508	36094	
8509	36184	
8510	36284	
8511	36378	
8512	36466	
8513	36547	
8514	36615	
8515	36662	
8516	36673	
8517	36646	
8518	36581	
8519	36489	
8520	36380	
8521	36267	
8522	36162	
8523	36081	
8524	36036	
8525	36026	
8526	36045	
8527	36078	
8528	36118	
8529	36165	
8530	36221	
8531	36283	
8532	36334	
8533	36355	
8534	36332	
8535	36271	
8536	36188	
8537	36102	
8538	36023	
8539	35951	
8540	35879	
8541	35804	
8542	35727	
8543	35658	
8544	35605	
8545	35572	
8546	35561	
8547	35573	
8548	35607	
8549	35658	
8550	35715	
8551	35764	
8552	35790	
8553	35787	
8554	35760	
8555	35719	
8556	35669	
8557	35610	
8558	35532	
8559	35433	
8560	35321	
8561	35222	
8562	35166	
8563	35181	
8564	35281	
8565	35464	
8566	35712	
8567	35998	
8568	36294	
8569	36577	
8570	36842	
8571	37095	
8572	37352	
8573	37622	
8574	37898	
8575	38163	
8576	38398	
8577	38596	
8578	38769	
8579	38940	
8580	39133	
8581	39366	
8582	39646	
8583	39965	
8584	40300	
8585	40615	
8586	40865	
8587	41012	
8588	41039	
8589	40955	
8590	40786	
8591	40561	
8592	40296	
8593	39991	
8594	39644	
8595	39266	
8596	38882	
8597	38521	
8598	38186	
8599	37847	
8600	37448	
8601	36946	
8602	36348	
8603	35716	
8604	35141	
8605	34698	
8606	34413	
8607	34258	
8608	34179	
8609	34130	
8610	34087	
8611	34049	
8612	34015	
8613	33978	
8614	33922	
8615	33841	
8616	33746	
8617	33671	
8618	33642	
8619	33666	
8620	33713	
8621	33743	
8622	33727	
8623	33672	
8624	33620	
8625	33615	
8626	33675	
8627	33788	
8628	33918	
8629	34040	
8630	34150	
8631	34259	
8632	34373	
8633	34474	
8634	34531	
8635	34522	
8636	34454	
8637	34365	
8638	34297	
8639	34268	
8640	34261	
8641	34240	
8642	34181	
8643	34091	
8644	34008	
8645	33969	
8646	33988	
8647	34048	
8648	34121	
8649	34188	
8650	34254	
8651	34334	
8652	34434	
8653	34534	
8654	34601	
8655	34610	
8656	34568	
8657	34513	
8658	34484	
8659	34498	
8660	34535	
8661	34554	
8662	34526	
8663	34459	
8664	34392	
8665	34375	
8666	34427	
8667	34530	
8668	34641	
8669	34717	
8670	34749	
8671	34757	
8672	34772	
8673	34804	
8674	34839	
8675	34850	
8676	34818	
8677	34753	
8678	34681	
8679	34625	
8680	34589	
8681	34557	
8682	34512	
8683	34455	
8684	34405	
8685	34391	
8686	34420	
8687	34481	
8688	34542	
8689	34581	
8690	34600	
8691	34618	
8692	34659	
8693	34721	
8694	34781	
8695	34808	
8696	34786	
8697	34727	
8698	34658	
8699	34600	
8700	34554	
8701	34503	
8702	34431	
8703	34341	
8704	34258	
8705	34213	
8706	34219	
8707	34268	
8708	34333	
8709	34387	
8710	34423	
8711	34445	
8712	34465	
8713	34486	
8714	34497	
8715	34483	
8716	34439	
8717	34377	
8718	34316	
8719	34267	
8720	34227	
8721	34177	
8722	34104	
8723	34016	
8724	33941	
8725	33907	
8726	33924	
8727	33973	
8728	34025	
8729	34058	
8730	34078	
8731	34103	
8732	34148	
8733	34206	
8734	34252	
8735	34260	
8736	34226	
8737	34169	
8738	34114	
8739	34078	
8740	34055	
8741	34024	
8742	33972	
8743	33904	
8744	33844	
8745	33817	
8746	33832	
8747	33877	
8748	33930	
8749	33976	
8750	34013	
8751	34054	
8752	34104	
8753	34159	
8754	34203	
8755	34217	
8756	34197	
8757	34153	
8758	34101	
8759	34050	
8760	33998	
8761	33935	
8762	33859	
8763	33780	
8764	33716	
8765	33681	
8766	33673	
8767	33678	
8768	33682	
8769	33681	
8770	33687	
8771	33715	
8772	33769	
8773	33833	
8774	33883	
8775	33897	
8776	33875	
8777	33830	
8778	33779	
8779	33725	
8780	33658	
8781	33570	
8782	33463	
8783	33363	
8784	33300	
8785	33292	
8786	33329	
8787	33381	
8788	33419	
8789	33435	
8790	33447	
8791	33482	
8792	33553	
8793	33641	
8794	33707	
8795	33719	
8796	33672	
8797	33595	
8798	33528	
8799	33494	
8800	33486	
8801	33478	
8802	33453	
8803	33421	
8804	33412	
8805	33453	
8806	33546	
8807	33660	
8808	33757	
8809	33817	
8810	33848	
8811	33880	
8812	33929	
8813	33986	
8814	34020	
8815	34003	
8816	33936	
8817	33855	
8818	33804	
8819	33804	
8820	33837	
8821	33859	
8822	33836	
8823	33765	
8824	33685	
8825	33644	
8826	33667	
8827	33743	
8828	33834	
8829	33905	
8830	33947	
8831	33980	
8832	34025	
8833	34089	
8834	34154	
8835	34193	
8836	34191	
8837	34154	
8838	34107	
8839	34069	
8840	34044	
8841	34022	
8842	33992	
8843	33960	
8844	33947	
8845	33973	
8846	34040	
8847	34128	
8848	34208	
8849	34259	
8850	34285	
8851	34307	
8852	34348	
8853	34410	
8854	34478	
8855	34526	
8856	34539	
8857	34526	
8858	34509	
8859	34508	
8860	34526	
8861	34547	
8862	34551	
8863	34534	
8864	34511	
8865	34512	
8866	34557	
8867	34645	
8868	34752	
8869	34847	
8870	34913	
8871	34948	
8872	34967	
8873	34981	
8874	34991	
8875	34989	
8876	34967	
8877	34927	
8878	34881	
8879	34836	
8880	34794	
8881	34743	
8882	34677	
8883	34600	
8884	34532	
8885	34496	
8886	34506	
8887	34554	
8888	34617	
8889	34673	
8890	34715	
8891	34749	
8892	34780	
8893	34803	
8894	34801	
8895	34756	
8896	34666	
8897	34553	
8898	34452	
8899	34384	
8900	34344	
8901	34308	
8902	34245	
8903	34147	
8904	34036	
8905	33949	
8906	33917	
8907	33942	
8908	34000	
8909	34056	
8910	34089	
8911	34096	
8912	34092	
8913	34089	
8914	34089	
8915	34085	
8916	34066	
8917	34026	
8918	33963	
8919	33881	
8920	33786	
8921	33687	
8922	33599	
8923	33536	
8924	33501	
8925	33489	
8926	33483	
8927	33471	
8928	33454	
8929	33450	
8930	33479	
8931	33549	
8932	33644	
8933	33730	
8934	33777	
8935	33775	
8936	33736	
8937	33687	
8938	33643	
8939	33607	
8940	33565	
8941	33506	
8942	33433	
8943	33366	
8944	33329	
8945	33335	
8946	33374	
8947	33421	
8948	33454	
8949	33467	
8950	33475	
8951	33501	
8952	33559	
8953	33637	
8954	33704	
8955	33724	
8956	33687	
8957	33606	
8958	33517	
8959	33450	
8960	33416	
8961	33402	
8962	33384	
8963	33349	
8964	33300	
8965	33257	
8966	33238	
8967	33248	
8968	33280	
8969	33325	
8970	33376	
8971	33436	
8972	33509	
8973	33589	
8974	33660	
8975	33703	
8976	33702	
8977	33661	
8978	33597	
8979	33532	
8980	33480	
8981	33446	
8982	33428	
8983	33423	
8984	33436	
8985	33471	
8986	33524	
8987	33584	
8988	33630	
8989	33650	
8990	33644	
8991	33626	
8992	33612	
8993	33609	
8994	33611	
8995	33605	
8996	33581	
8997	33540	
8998	33491	
8999	33442	
9000	33396	
9001	33350	
9002	33305	
9003	33270	
9004	33261	
9005	33289	
9006	33345	
9007	33407	
9008	33451	
9009	33469	
9010	33480	
9011	33514	
9012	33589	
9013	33693	
9014	33789	
9015	33836	
9016	33821	
9017	33761	
9018	33696	
9019	33658	
9020	33650	
9021	33656	
9022	33654	
9023	33644	
9024	33645	
9025	33679	
9026	33750	
9027	33834	
9028	33895	
9029	33912	
9030	33896	
9031	33885	
9032	33914	
9033	33991	
9034	34089	
9035	34167	
9036	34193	
9037	34169	
9038	34120	
9039	34071	
9040	34029	
9041	33987	
9042	33934	
9043	33876	
9044	33835	
9045	33831	
9046	33869	
9047	33926	
9048	33971	
9049	33986	
9050	33983	
9051	33993	
9052	34042	
9053	34128	
9054	34219	
9055	34278	
9056	34283	
9057	34249	
9058	34210	
9059	34190	
9060	34185	
9061	34168	
9062	34110	
9063	34015	
9064	33915	
9065	33855	
9066	33861	
9067	33916	
9068	33981	
9069	34021	
9070	34030	
9071	34034	
9072	34067	
9073	34140	
9074	34230	
9075	34294	
9076	34298	
9077	34243	
9078	34161	
9079	34094	
9080	34060	
9081	34046	
9082	34021	
9083	33965	
9084	33883	
9085	33805	
9086	33761	
9087	33759	
9088	33781	
9089	33803	
9090	33814	
9091	33823	
9092	33850	
9093	33902	
9094	33960	
9095	33994	
9096	33976	
9097	33910	
9098	33823	
9099	33749	
9100	33705	
9101	33681	
9102	33652	
9103	33604	
9104	33546	
9105	33501	
9106	33492	
9107	33519	
9108	33564	
9109	33602	
9110	33625	
9111	33642	
9112	33671	
9113	33713	
9114	33754	
9115	33766	
9116	33733	
9117	33662	
9118	33578	
9119	33507	
9120	33455	
9121	33406	
9122	33342	
9123	33264	
9124	33195	
9125	33165	
9126	33190	
9127	33258	
9128	33334	
9129	33385	
9130	33402	
9131	33399	
9132	33398	
9133	33410	
9134	33423	
9135	33417	
9136	33383	
9137	33334	
9138	33294	
9139	33283	
9140	33294	
9141	33300	
9142	33279	
9143	33229	
9144	33180	
9145	33167	
9146	33207	
9147	33282	
9148	33351	
9149	33385	
9150	33386	
9151	33389	
9152	33429	
9153	33513	
9154	33605	
9155	33653	
9156	33623	
9157	33527	
9158	33413	
9159	33335	
9160	33310	
9161	33319	
9162	33321	
9163	33293	
9164	33247	
9165	33217	
9166	33235	
9167	33301	
9168	33385	
9169	33453	
9170	33490	
9171	33510	
9172	33541	
9173	33591	
9174	33644	
9175	33666	
9176	33636	
9177	33568	
9178	33499	
9179	33465	
9180	33475	
9181	33499	
9182	33496	
9183	33443	
9184	33355	
9185	33276	
9186	33250	
9187	33292	
9188	33382	
9189	33484	
9190	33570	
9191	33634	
9192	33686	
9193	33739	
9194	33791	
9195	33831	
9196	33844	
9197	33827	
9198	33789	
9199	33741	
9200	33687	
9201	33627	
9202	33559	
9203	33495	
9204	33453	
9205	33449	
9206	33485	
9207	33546	
9208	33610	
9209	33665	
9210	33715	
9211	33774	
9212	33850	
9213	33931	
9214	33990	
9215	34004	
9216	33967	
9217	33901	
9218	33838	
9219	33801	
9220	33788	
9221	33779	
9222	33749	
9223	33696	
9224	33642	
9225	33617	
9226	33641	
9227	33706	
9228	33782	
9229	33841	
9230	33874	
9231	33894	
9232	33925	
9233	33979	
9234	34043	
9235	34090	
9236	34097	
9237	34062	
9238	34003	
9239	33947	
9240	33908	
9241	33882	
9242	33858	
9243	33829	
9244	33807	
9245	33808	
9246	33843	
9247	33900	
9248	33956	
9249	33994	
9250	34018	
9251	34050	
9252	34115	
9253	34212	
9254	34312	
9255	34372	
9256	34367	
9257	34305	
9258	34225	
9259	34164	
9260	34135	
9261	34119	
9262	34087	
9263	34025	
9264	33950	
9265	33898	
9266	33898	
9267	33948	
9268	34014	
9269	34060	
9270	34067	
9271	34051	
9272	34044	
9273	34069	
9274	34119	
9275	34162	
9276	34166	
9277	34122	
9278	34049	
9279	33979	
9280	33935	
9281	33914	
9282	33898	
9283	33876	
9284	33853	
9285	33849	
9286	33881	
9287	33947	
9288	34025	
9289	34095	
9290	34150	
9291	34199	
9292	34264	
9293	34348	
9294	34431	
9295	34481	
9296	34471	
9297	34404	
9298	34310	
9299	34228	
9300	34182	
9301	34169	
9302	34165	
9303	34153	
9304	34130	
9305	34116	
9306	34128	
9307	34170	
9308	34230	
9309	34286	
9310	34330	
9311	34366	
9312	34409	
9313	34463	
9314	34514	
9315	34538	
9316	34516	
9317	34451	
9318	34367	
9319	34291	
9320	34238	
9321	34198	
9322	34150	
9323	34084	
9324	34016	
9325	33979	
9326	34000	
9327	34077	
9328	34178	
9329	34260	
9330	34301	
9331	34310	
9332	34312	
9333	34329	
9334	34354	
9335	34362	
9336	34333	
9337	34273	
9338	34210	
9339	34171	
9340	34157	
9341	34144	
9342	34105	
9343	34034	
9344	33960	
9345	33924	
9346	33947	
9347	34016	
9348	34092	
9349	34141	
9350	34158	
9351	34168	
9352	34202	
9353	34266	
9354	34335	
9355	34368	
9356	34341	
9357	34267	
9358	34186	
9359	34135	
9360	34125	
9361	34128	
9362	34107	
9363	34043	
9364	33953	
9365	33878	
9366	33854	
9367	33885	
9368	33950	
9369	34014	
9370	34061	
9371	34095	
9372	34131	
9373	34175	
9374	34214	
9375	34227	
9376	34204	
9377	34155	
9378	34107	
9379	34081	
9380	34078	
9381	34073	
9382	34039	
9383	33966	
9384	33875	
9385	33807	
9386	33795	
9387	33843	
9388	33925	
9389	34002	
9390	34051	
9391	34077	
9392	34104	
9393	34148	
9394	34205	
9395	34247	
9396	34247	
9397	34201	
9398	34135	
9399	34082	
9400	34061	
9401	34062	
9402	34055	
9403	34020	
9404	33960	
9405	33907	
9406	33896	
9407	33938	
9408	34013	
9409	34086	
9410	34131	
9411	34152	
9412	34175	
9413	34223	
9414	34295	
9415	34364	
9416	34389	
9417	34350	
9418	34258	
9419	34148	
9420	34056	
9421	33998	
9422	33968	
9423	33953	
9424	33944	
9425	33944	
9426	33957	
9427	33981	
9428	34003	
9429	34012	
9430	34006	
9431	33998	
9432	34001	
9433	34020	
9434	34049	
9435	34079	
9436	34111	
9437	34169	
9438	34281	
9439	34460	
9440	34691	
9441	34932	
9442	35142	
9443	35306	
9444	35449	
9445	35612	
9446	35831	
9447	36111	
9448	36427	
9449	36745	
9450	37050	
9451	37353	
9452	37680	
9453	38047	
9454	38445	
9455	38842	
9456	39194	
9457	39469	
9458	39651	
9459	39743	
9460	39754	
9461	39698	
9462	39587	
9463	39429	
9464	39233	
9465	39005	
9466	38747	
9467	38468	
9468	38182	
9469	37908	
9470	37663	
9471	37448	
9472	37232	
9473	36965	
9474	36598	
9475	36112	
9476	35545	
9477	34972	
9478	34481	
9479	34124	
9480	33895	
9481	33741	
9482	33605	
9483	33457	
9484	33306	
9485	33183	
9486	33109	
9487	33079	
9488	33069	
9489	33062	
9490	33065	
9491	33100	
9492	33180	
9493	33291	
9494	33390	
9495	33438	
9496	33426	
9497	33387	
9498	33372	
9499	33410	
9500	33488	
9501	33554	
9502	33562	
9503	33505	
9504	33424	
9505	33378	
9506	33406	
9507	33498	
9508	33610	
9509	33700	
9510	33757	
9511	33802	
9512	33866	
9513	33955	
9514	34042	
9515	34087	
9516	34065	
9517	33989	
9518	33902	
9519	33846	
9520	33833	
9521	33844	
9522	33843	
9523	33814	
9524	33770	
9525	33744	
9526	33762	
9527	33823	
9528	33905	
9529	33982	
9530	34044	
9531	34104	
9532	34172	
9533	34243	
9534	34293	
9535	34295	
9536	34243	
9537	34164	
9538	34098	
9539	34066	
9540	34061	
9541	34047	
9542	33995	
9543	33908	
9544	33819	
9545	33774	
9546	33790	
9547	33846	
9548	33901	
9549	33924	
9550	33924	
9551	33935	
9552	33988	
9553	34080	
9554	34168	
9555	34202	
9556	34155	
9557	34048	
9558	33931	
9559	33850	
9560	33813	
9561	33793	
9562	33755	
9563	33688	
9564	33615	
9565	33577	
9566	33596	
9567	33661	
9568	33730	
9569	33768	
9570	33771	
9571	33768	
9572	33793	
9573	33856	
9574	33930	
9575	33972	
9576	33951	
9577	33877	
9578	33791	
9579	33734	
9580	33721	
9581	33726	
9582	33712	
9583	33657	
9584	33578	
9585	33520	
9586	33523	
9587	33593	
9588	33696	
9589	33787	
9590	33838	
9591	33855	
9592	33871	
9593	33909	
9594	33966	
9595	34010	
9596	34008	
9597	33950	
9598	33860	
9599	33776	
9600	33723	
9601	33693	
9602	33659	
9603	33598	
9604	33516	
9605	33445	
9606	33419	
9607	33449	
9608	33512	
9609	33570	
9610	33599	
9611	33604	
9612	33612	
9613	33643	
9614	33696	
9615	33742	
9616	33751	
9617	33713	
9618	33646	
9619	33580	
9620	33531	
9621	33495	
9622	33452	
9623	33395	
9624	33336	
9625	33305	
9626	33323	
9627	33383	
9628	33453	
9629	33498	
9630	33508	
9631	33503	
9632	33517	
9633	33567	
9634	33637	
9635	33688	
9636	33684	
9637	33625	
9638	33546	
9639	33489	
9640	33473	
9641	33482	
9642	33476	
9643	33428	
9644	33345	
9645	33267	
9646	33234	
9647	33260	
9648	33323	
9649	33384	
9650	33420	
9651	33437	
9652	33465	
9653	33527	
9654	33617	
9655	33701	
9656	33739	
9657	33715	
9658	33644	
9659	33559	
9660	33487	
9661	33435	
9662	33391	
9663	33345	
9664	33302	
9665	33278	
9666	33286	
9667	33320	
9668	33361	
9669	33388	
9670	33400	
9671	33415	
9672	33454	
9673	33519	
9674	33587	
9675	33625	
9676	33613	
9677	33561	
9678	33503	
9679	33463	
9680	33442	
9681	33417	
9682	33362	
9683	33279	
9684	33204	
9685	33183	
9686	33239	
9687	33351	
9688	33461	
9689	33518	
9690	33509	
9691	33468	
9692	33450	
9693	33485	
9694	33562	
9695	33633	
9696	33654	
9697	33613	
9698	33540	
9699	33476	
9700	33447	
9701	33445	
9702	33440	
9703	33408	
9704	33355	
9705	33312	
9706	33309	
9707	33356	
9708	33430	
9709	33497	
9710	33537	
9711	33560	
9712	33591	
9713	33650	
9714	33732	
9715	33808	
9716	33848	
9717	33842	
9718	33807	
9719	33774	
9720	33760	
9721	33756	
9722	33744	
9723	33711	
9724	33671	
9725	33661	
9726	33714	
9727	33833	
9728	33991	
9729	34142	
9730	34256	
9731	34333	
9732	34393	
9733	34459	
9734	34534	
9735	34599	
9736	34633	
9737	34630	
9738	34608	
9739	34590	
9740	34589	
9741	34594	
9742	34583	
9743	34546	
9744	34500	
9745	34477	
9746	34508	
9747	34594	
9748	34704	
9749	34800	
9750	34862	
9751	34897	
9752	34929	
9753	34978	
9754	35040	
9755	35095	
9756	35117	
9757	35101	
9758	35063	
9759	35024	
9760	34992	
9761	34953	
9762	34884	
9763	34778	
9764	34658	
9765	34567	
9766	34542	
9767	34588	
9768	34668	
9769	34736	
9770	34764	
9771	34761	
9772	34757	
9773	34776	
9774	34814	
9775	34839	
9776	34820	
9777	34752	
9778	34661	
9779	34581	
9780	34530	
9781	34495	
9782	34450	
9783	34378	
9784	34294	
9785	34235	
9786	34234	
9787	34290	
9788	34368	
9789	34424	
9790	34432	
9791	34404	
9792	34377	
9793	34384	
9794	34428	
9795	34478	
9796	34497	
9797	34463	
9798	34389	
9799	34302	
9800	34227	
9801	34172	
9802	34126	
9803	34086	
9804	34058	
9805	34063	
9806	34112	
9807	34197	
9808	34292	
9809	34371	
9810	34423	
9811	34460	
9812	34500	
9813	34548	
9814	34592	
9815	34608	
9816	34578	
9817	34507	
9818	34423	
9819	34354	
9820	34315	
9821	34301	
9822	34290	
9823	34268	
9824	34237	
9825	34212	
9826	34211	
9827	34235	
9828	34270	
9829	34301	
9830	34322	
9831	34341	
9832	34374	
9833	34425	
9834	34477	
9835	34505	
9836	34487	
9837	34424	
9838	34338	
9839	34256	
9840	34192	
9841	34146	
9842	34107	
9843	34070	
9844	34047	
9845	34058	
9846	34116	
9847	34215	
9848	34326	
9849	34420	
9850	34482	
9851	34521	
9852	34565	
9853	34631	
9854	34713	
9855	34781	
9856	34804	
9857	34767	
9858	34687	
9859	34597	
9860	34522	
9861	34462	
9862	34400	
9863	34319	
9864	34224	
9865	34141	
9866	34107	
9867	34136	
9868	34212	
9869	34299	
9870	34362	
9871	34391	
9872	34397	
9873	34400	
9874	34408	
9875	34409	
9876	34388	
9877	34339	
9878	34275	
9879	34214	
9880	34167	
9881	34123	
9882	34063	
9883	33980	
9884	33889	
9885	33824	
9886	33814	
9887	33858	
9888	33928	
9889	33984	
9890	34009	
9891	34014	
9892	34031	
9893	34083	
9894	34165	
9895	34241	
9896	34272	
9897	34239	
9898	34160	
9899	34075	
9900	34016	
9901	33988	
9902	33971	
9903	33942	
9904	33895	
9905	33849	
9906	33835	
9907	33868	
9908	33939	
9909	34019	
9910	34084	
9911	34129	
9912	34170	
9913	34223	
9914	34289	
9915	34347	
9916	34366	
9917	34332	
9918	34254	
9919	34161	
9920	34080	
9921	34021	
9922	33974	
9923	33926	
9924	33884	
9925	33871	
9926	33910	
9927	34002	
9928	34114	
9929	34200	
9930	34231	
9931	34219	
9932	34204	
9933	34230	
9934	34303	
9935	34390	
9936	34436	
9937	34407	
9938	34312	
9939	34193	
9940	34099	
9941	34051	
9942	34036	
9943	34024	
9944	33990	
9945	33940	
9946	33898	
9947	33895	
9948	33941	
9949	34025	
9950	34122	
9951	34210	
9952	34283	
9953	34342	
9954	34392	
9955	34428	
9956	34442	
9957	34423	
9958	34375	
9959	34307	
9960	34237	
9961	34176	
9962	34129	
9963	34094	
9964	34071	
9965	34063	
9966	34073	
9967	34103	
9968	34148	
9969	34203	
9970	34263	
9971	34332	
9972	34414	
9973	34507	
9974	34594	
9975	34644	
9976	34633	
9977	34558	
9978	34446	
9979	34339	
9980	34272	
9981	34247	
9982	34240	
9983	34217	
9984	34167	
9985	34109	
9986	34080	
9987	34106	
9988	34184	
9989	34284	
9990	34369	
9991	34420	
9992	34445	
9993	34462	
9994	34483	
9995	34505	
9996	34513	
9997	34495	
9998	34452	
9999	34394	
10000	34333	
10001	34277	
10002	34220	
10003	34163	
10004	34111	
10005	34077	
10006	34073	
10007	34098	
10008	34138	
10009	34180	
10010	34218	
10011	34262	
10012	34325	
10013	34413	
10014	34507	
10015	34575	
10016	34587	
10017	34536	
10018	34442	
10019	34340	
10020	34258	
10021	34200	
10022	34152	
10023	34099	
10024	34039	
10025	33989	
10026	33966	
10027	33979	
10028	34016	
10029	34060	
10030	34103	
10031	34151	
10032	34214	
10033	34295	
10034	34376	
10035	34429	
10036	34433	
10037	34390	
10038	34320	
10039	34249	
10040	34191	
10041	34139	
10042	34081	
10043	34015	
10044	33958	
10045	33935	
10046	33962	
10047	34030	
10048	34108	
