# OpenSignals Text File Format
# {"00:80:E1:26:9E:1A":{"sensor":["ECG"],"device name":"00:80:E1:26:9E:1A","column":["nSeq","ECG"],"sync interval":2,"time":"13:05:35","comments":"","keywords":"","device connection":"BLE00:80:E1:26:9E:1A","channels":[0],"date":"2025-06-11","mode":0,"digital IO":[],"firmware version":256,"device":"cardiobanplux","position":0,"sampling rate":1000,"label":["ECG"],"resolution":[16],"special":[{}],"sleeve color":["UNKNOWN"]}}
# EndOfHeader
0	34047	
1	34050	
2	34057	
3	34055	
4	34034	
5	33999	
6	33964	
7	33947	
8	33954	
9	33980	
10	34009	
11	34023	
12	34017	
13	33996	
14	33974	
15	33964	
16	33972	
17	33991	
18	34010	
19	34015	
20	34002	
21	33977	
22	33950	
23	33932	
24	33927	
25	33932	
26	33941	
27	33951	
28	33963	
29	33977	
30	33987	
31	33984	
32	33958	
33	33914	
34	33866	
35	33835	
36	33837	
37	33868	
38	33912	
39	33948	
40	33962	
41	33958	
42	33948	
43	33946	
44	33953	
45	33959	
46	33953	
47	33932	
48	33908	
49	33900	
50	33921	
51	33965	
52	34011	
53	34036	
54	34026	
55	33992	
56	33957	
57	33945	
58	33964	
59	34001	
60	34033	
61	34042	
62	34029	
63	34009	
64	34002	
65	34017	
66	34045	
67	34064	
68	34061	
69	34039	
70	34016	
71	34016	
72	34044	
73	34086	
74	34113	
75	34103	
76	34052	
77	33983	
78	33928	
79	33911	
80	33933	
81	33978	
82	34019	
83	34038	
84	34031	
85	34009	
86	33987	
87	33977	
88	33985	
89	34007	
90	34033	
91	34049	
92	34047	
93	34026	
94	33997	
95	33974	
96	33969	
97	33982	
98	34000	
99	34007	
100	33991	
101	33958	
102	33923	
103	33904	
104	33907	
105	33925	
106	33941	
107	33939	
108	33919	
109	33892	
110	33876	
111	33881	
112	33904	
113	33933	
114	33956	
115	33970	
116	33981	
117	33999	
118	34025	
119	34049	
120	34057	
121	34039	
122	34002	
123	33962	
124	33940	
125	33946	
126	33975	
127	34007	
128	34027	
129	34027	
130	34013	
131	34000	
132	33997	
133	34004	
134	34012	
135	34008	
136	33988	
137	33958	
138	33933	
139	33924	
140	33933	
141	33947	
142	33952	
143	33945	
144	33933	
145	33933	
146	33951	
147	33982	
148	34005	
149	34000	
150	33962	
151	33907	
152	33864	
153	33853	
154	33875	
155	33910	
156	33932	
157	33925	
158	33897	
159	33869	
160	33861	
161	33875	
162	33898	
163	33909	
164	33899	
165	33875	
166	33857	
167	33860	
168	33885	
169	33919	
170	33946	
171	33955	
172	33944	
173	33920	
174	33888	
175	33852	
176	33816	
177	33788	
178	33777	
179	33785	
180	33805	
181	33824	
182	33826	
183	33806	
184	33776	
185	33753	
186	33754	
187	33782	
188	33823	
189	33853	
190	33856	
191	33833	
192	33800	
193	33780	
194	33787	
195	33818	
196	33856	
197	33882	
198	33884	
199	33865	
200	33835	
201	33807	
202	33790	
203	33789	
204	33802	
205	33823	
206	33844	
207	33856	
208	33853	
209	33837	
210	33816	
211	33806	
212	33813	
213	33838	
214	33868	
215	33885	
216	33877	
217	33846	
218	33802	
219	33759	
220	33727	
221	33707	
222	33695	
223	33688	
224	33689	
225	33704	
226	33737	
227	33783	
228	33832	
229	33867	
230	33877	
231	33860	
232	33827	
233	33794	
234	33774	
235	33773	
236	33786	
237	33800	
238	33805	
239	33797	
240	33782	
241	33770	
242	33767	
243	33771	
244	33773	
245	33766	
246	33745	
247	33715	
248	33687	
249	33669	
250	33664	
251	33672	
252	33693	
253	33721	
254	33752	
255	33780	
256	33797	
257	33796	
258	33778	
259	33749	
260	33723	
261	33712	
262	33718	
263	33734	
264	33746	
265	33745	
266	33736	
267	33732	
268	33747	
269	33777	
270	33810	
271	33827	
272	33816	
273	33784	
274	33750	
275	33730	
276	33732	
277	33746	
278	33758	
279	33757	
280	33745	
281	33734	
282	33735	
283	33750	
284	33768	
285	33775	
286	33763	
287	33737	
288	33714	
289	33710	
290	33730	
291	33761	
292	33784	
293	33788	
294	33773	
295	33752	
296	33742	
297	33754	
298	33781	
299	33806	
300	33811	
301	33790	
302	33752	
303	33715	
304	33699	
305	33709	
306	33739	
307	33771	
308	33788	
309	33786	
310	33772	
311	33756	
312	33749	
313	33751	
314	33758	
315	33762	
316	33761	
317	33755	
318	33747	
319	33738	
320	33731	
321	33726	
322	33726	
323	33731	
324	33741	
325	33753	
326	33762	
327	33764	
328	33758	
329	33748	
330	33739	
331	33740	
332	33758	
333	33793	
334	33838	
335	33878	
336	33898	
337	33891	
338	33862	
339	33828	
340	33808	
341	33813	
342	33842	
343	33884	
344	33928	
345	33966	
346	33997	
347	34025	
348	34053	
349	34077	
350	34092	
351	34091	
352	34078	
353	34060	
354	34049	
355	34053	
356	34069	
357	34088	
358	34103	
359	34110	
360	34114	
361	34125	
362	34151	
363	34193	
364	34247	
365	34302	
366	34350	
367	34384	
368	34404	
369	34409	
370	34407	
371	34403	
372	34401	
373	34400	
374	34395	
375	34382	
376	34361	
377	34342	
378	34332	
379	34337	
380	34351	
381	34359	
382	34345	
383	34302	
384	34234	
385	34158	
386	34093	
387	34052	
388	34034	
389	34026	
390	34012	
391	33981	
392	33935	
393	33886	
394	33845	
395	33817	
396	33795	
397	33768	
398	33730	
399	33689	
400	33656	
401	33642	
402	33647	
403	33661	
404	33675	
405	33684	
406	33690	
407	33698	
408	33709	
409	33718	
410	33721	
411	33712	
412	33695	
413	33676	
414	33662	
415	33656	
416	33655	
417	33653	
418	33642	
419	33615	
420	33569	
421	33511	
422	33452	
423	33407	
424	33388	
425	33398	
426	33429	
427	33466	
428	33497	
429	33512	
430	33510	
431	33495	
432	33471	
433	33444	
434	33421	
435	33408	
436	33407	
437	33417	
438	33428	
439	33431	
440	33424	
441	33414	
442	33415	
443	33436	
444	33473	
445	33511	
446	33530	
447	33523	
448	33499	
449	33484	
450	33497	
451	33542	
452	33600	
453	33642	
454	33647	
455	33615	
456	33565	
457	33523	
458	33507	
459	33516	
460	33534	
461	33546	
462	33544	
463	33532	
464	33522	
465	33520	
466	33529	
467	33542	
468	33554	
469	33563	
470	33572	
471	33588	
472	33617	
473	33667	
474	33747	
475	33867	
476	34034	
477	34252	
478	34512	
479	34792	
480	35063	
481	35292	
482	35452	
483	35529	
484	35527	
485	35460	
486	35346	
487	35191	
488	34991	
489	34731	
490	34402	
491	34016	
492	33606	
493	33215	
494	32873	
495	32585	
496	32324	
497	32056	
498	31754	
499	31416	
500	31063	
501	30718	
502	30392	
503	30072	
504	29739	
505	29383	
506	29018	
507	28679	
508	28403	
509	28204	
510	28077	
511	27998	
512	27950	
513	27927	
514	27930	
515	27950	
516	27966	
517	27950	
518	27889	
519	27803	
520	27736	
521	27736	
522	27828	
523	28002	
524	28228	
525	28476	
526	28740	
527	29035	
528	29382	
529	29789	
530	30234	
531	30681	
532	31096	
533	31466	
534	31804	
535	32128	
536	32443	
537	32728	
538	32955	
539	33108	
540	33204	
541	33284	
542	33389	
543	33536	
544	33702	
545	33848	
546	33944	
547	33990	
548	34018	
549	34058	
550	34126	
551	34204	
552	34268	
553	34301	
554	34311	
555	34318	
556	34335	
557	34357	
558	34366	
559	34349	
560	34315	
561	34284	
562	34274	
563	34284	
564	34291	
565	34273	
566	34226	
567	34174	
568	34154	
569	34185	
570	34254	
571	34319	
572	34338	
573	34298	
574	34223	
575	34163	
576	34160	
577	34223	
578	34317	
579	34393	
580	34412	
581	34367	
582	34290	
583	34223	
584	34198	
585	34217	
586	34258	
587	34291	
588	34294	
589	34269	
590	34234	
591	34207	
592	34198	
593	34201	
594	34202	
595	34193	
596	34177	
597	34164	
598	34161	
599	34168	
600	34174	
601	34171	
602	34160	
603	34155	
604	34169	
605	34203	
606	34246	
607	34281	
608	34293	
609	34284	
610	34264	
611	34245	
612	34236	
613	34238	
614	34248	
615	34265	
616	34283	
617	34296	
618	34292	
619	34265	
620	34216	
621	34158	
622	34111	
623	34094	
624	34117	
625	34170	
626	34236	
627	34293	
628	34328	
629	34342	
630	34344	
631	34344	
632	34341	
633	34328	
634	34295	
635	34246	
636	34198	
637	34175	
638	34189	
639	34229	
640	34270	
641	34283	
642	34257	
643	34208	
644	34164	
645	34147	
646	34163	
647	34197	
648	34231	
649	34256	
650	34274	
651	34292	
652	34309	
653	34315	
654	34301	
655	34268	
656	34228	
657	34202	
658	34201	
659	34220	
660	34244	
661	34257	
662	34253	
663	34240	
664	34225	
665	34212	
666	34198	
667	34183	
668	34170	
669	34171	
670	34190	
671	34222	
672	34248	
673	34251	
674	34227	
675	34188	
676	34156	
677	34147	
678	34164	
679	34195	
680	34226	
681	34246	
682	34255	
683	34260	
684	34267	
685	34279	
686	34293	
687	34307	
688	34315	
689	34316	
690	34312	
691	34310	
692	34314	
693	34331	
694	34359	
695	34391	
696	34415	
697	34419	
698	34400	
699	34365	
700	34328	
701	34309	
702	34317	
703	34350	
704	34395	
705	34438	
706	34467	
707	34482	
708	34490	
709	34497	
710	34507	
711	34513	
712	34507	
713	34486	
714	34457	
715	34437	
716	34440	
717	34471	
718	34519	
719	34561	
720	34576	
721	34559	
722	34525	
723	34499	
724	34502	
725	34537	
726	34590	
727	34637	
728	34660	
729	34656	
730	34631	
731	34602	
732	34581	
733	34572	
734	34569	
735	34567	
736	34560	
737	34546	
738	34528	
739	34509	
740	34492	
741	34477	
742	34471	
743	34479	
744	34505	
745	34545	
746	34586	
747	34609	
748	34603	
749	34573	
750	34540	
751	34528	
752	34548	
753	34589	
754	34626	
755	34635	
756	34612	
757	34571	
758	34534	
759	34515	
760	34513	
761	34515	
762	34510	
763	34501	
764	34499	
765	34512	
766	34538	
767	34560	
768	34561	
769	34540	
770	34513	
771	34502	
772	34517	
773	34551	
774	34581	
775	34587	
776	34563	
777	34524	
778	34492	
779	34478	
780	34478	
781	34479	
782	34468	
783	34445	
784	34422	
785	34410	
786	34414	
787	34427	
788	34435	
789	34431	
790	34418	
791	34408	
792	34410	
793	34421	
794	34427	
795	34414	
796	34378	
797	34328	
798	34285	
799	34262	
800	34261	
801	34266	
802	34262	
803	34240	
804	34212	
805	34196	
806	34203	
807	34232	
808	34263	
809	34275	
810	34261	
811	34233	
812	34211	
813	34208	
814	34220	
815	34226	
816	34208	
817	34161	
818	34100	
819	34044	
820	34013	
821	34010	
822	34027	
823	34050	
824	34065	
825	34063	
826	34042	
827	34008	
828	33974	
829	33956	
830	33966	
831	34003	
832	34051	
833	34086	
834	34085	
835	34042	
836	33973	
837	33906	
838	33868	
839	33867	
840	33893	
841	33921	
842	33933	
843	33930	
844	33926	
845	33936	
846	33962	
847	33992	
848	34005	
849	33992	
850	33963	
851	33941	
852	33940	
853	33957	
854	33973	
855	33967	
856	33936	
857	33900	
858	33886	
859	33909	
860	33961	
861	34013	
862	34036	
863	34024	
864	33990	
865	33961	
866	33954	
867	33970	
868	33993	
869	34007	
870	34004	
871	33991	
872	33983	
873	33988	
874	34003	
875	34017	
876	34022	
877	34014	
878	33998	
879	33984	
880	33976	
881	33972	
882	33966	
883	33955	
884	33939	
885	33926	
886	33919	
887	33922	
888	33931	
889	33944	
890	33957	
891	33973	
892	33989	
893	34006	
894	34018	
895	34023	
896	34022	
897	34015	
898	34008	
899	34000	
900	33990	
901	33978	
902	33966	
903	33962	
904	33969	
905	33990	
906	34015	
907	34031	
908	34030	
909	34010	
910	33981	
911	33956	
912	33947	
913	33954	
914	33971	
915	33987	
916	33994	
917	33991	
918	33978	
919	33956	
920	33928	
921	33899	
922	33872	
923	33856	
924	33853	
925	33864	
926	33885	
927	33907	
928	33922	
929	33924	
930	33911	
931	33889	
932	33866	
933	33852	
934	33855	
935	33873	
936	33901	
937	33930	
938	33950	
939	33955	
940	33945	
941	33927	
942	33912	
943	33910	
944	33926	
945	33954	
946	33981	
947	33992	
948	33981	
949	33958	
950	33939	
951	33938	
952	33957	
953	33982	
954	33995	
955	33984	
956	33954	
957	33917	
958	33886	
959	33866	
960	33855	
961	33849	
962	33848	
963	33859	
964	33883	
965	33915	
966	33939	
967	33939	
968	33909	
969	33860	
970	33812	
971	33789	
972	33799	
973	33835	
974	33874	
975	33897	
976	33893	
977	33867	
978	33835	
979	33814	
980	33811	
981	33823	
982	33838	
983	33846	
984	33842	
985	33829	
986	33819	
987	33816	
988	33821	
989	33830	
990	33834	
991	33831	
992	33825	
993	33821	
994	33825	
995	33836	
996	33848	
997	33853	
998	33842	
999	33816	
1000	33780	
1001	33743	
1002	33709	
1003	33682	
1004	33662	
1005	33654	
1006	33660	
1007	33680	
1008	33709	
1009	33735	
1010	33749	
1011	33746	
1012	33734	
1013	33728	
1014	33736	
1015	33760	
1016	33789	
1017	33808	
1018	33810	
1019	33798	
1020	33787	
1021	33789	
1022	33806	
1023	33825	
1024	33825	
1025	33792	
1026	33733	
1027	33673	
1028	33643	
1029	33657	
1030	33705	
1031	33758	
1032	33780	
1033	33760	
1034	33708	
1035	33655	
1036	33629	
1037	33639	
1038	33670	
1039	33699	
1040	33705	
1041	33689	
1042	33665	
1043	33652	
1044	33657	
1045	33674	
1046	33687	
1047	33686	
1048	33676	
1049	33671	
1050	33687	
1051	33723	
1052	33763	
1053	33784	
1054	33770	
1055	33724	
1056	33666	
1057	33620	
1058	33600	
1059	33603	
1060	33617	
1061	33626	
1062	33624	
1063	33617	
1064	33611	
1065	33615	
1066	33629	
1067	33648	
1068	33666	
1069	33678	
1070	33681	
1071	33675	
1072	33659	
1073	33639	
1074	33621	
1075	33614	
1076	33621	
1077	33637	
1078	33652	
1079	33655	
1080	33644	
1081	33625	
1082	33611	
1083	33607	
1084	33612	
1085	33615	
1086	33608	
1087	33591	
1088	33575	
1089	33569	
1090	33579	
1091	33597	
1092	33611	
1093	33613	
1094	33606	
1095	33601	
1096	33603	
1097	33610	
1098	33613	
1099	33604	
1100	33586	
1101	33574	
1102	33587	
1103	33629	
1104	33685	
1105	33728	
1106	33736	
1107	33706	
1108	33658	
1109	33617	
1110	33601	
1111	33607	
1112	33618	
1113	33617	
1114	33597	
1115	33569	
1116	33549	
1117	33546	
1118	33556	
1119	33567	
1120	33566	
1121	33555	
1122	33544	
1123	33549	
1124	33576	
1125	33619	
1126	33660	
1127	33686	
1128	33693	
1129	33686	
1130	33675	
1131	33666	
1132	33654	
1133	33638	
1134	33615	
1135	33592	
1136	33581	
1137	33587	
1138	33608	
1139	33634	
1140	33653	
1141	33655	
1142	33641	
1143	33618	
1144	33596	
1145	33584	
1146	33584	
1147	33593	
1148	33607	
1149	33622	
1150	33635	
1151	33644	
1152	33649	
1153	33650	
1154	33647	
1155	33643	
1156	33640	
1157	33642	
1158	33645	
1159	33646	
1160	33644	
1161	33638	
1162	33632	
1163	33632	
1164	33640	
1165	33655	
1166	33674	
1167	33693	
1168	33708	
1169	33718	
1170	33719	
1171	33712	
1172	33701	
1173	33692	
1174	33692	
1175	33711	
1176	33749	
1177	33799	
1178	33849	
1179	33884	
1180	33896	
1181	33887	
1182	33868	
1183	33855	
1184	33860	
1185	33889	
1186	33939	
1187	34005	
1188	34075	
1189	34140	
1190	34186	
1191	34206	
1192	34198	
1193	34171	
1194	34141	
1195	34124	
1196	34124	
1197	34133	
1198	34135	
1199	34114	
1200	34070	
1201	34020	
1202	33989	
1203	33996	
1204	34045	
1205	34121	
1206	34198	
1207	34253	
1208	34278	
1209	34282	
1210	34279	
1211	34284	
1212	34301	
1213	34325	
1214	34343	
1215	34345	
1216	34327	
1217	34298	
1218	34269	
1219	34248	
1220	34238	
1221	34232	
1222	34219	
1223	34195	
1224	34160	
1225	34121	
1226	34087	
1227	34060	
1228	34037	
1229	34010	
1230	33973	
1231	33926	
1232	33876	
1233	33832	
1234	33799	
1235	33776	
1236	33760	
1237	33747	
1238	33733	
1239	33717	
1240	33696	
1241	33670	
1242	33638	
1243	33606	
1244	33581	
1245	33569	
1246	33570	
1247	33581	
1248	33589	
1249	33589	
1250	33576	
1251	33558	
1252	33543	
1253	33541	
1254	33555	
1255	33574	
1256	33581	
1257	33563	
1258	33515	
1259	33448	
1260	33385	
1261	33347	
1262	33344	
1263	33365	
1264	33389	
1265	33397	
1266	33387	
1267	33373	
1268	33374	
1269	33397	
1270	33431	
1271	33451	
1272	33436	
1273	33385	
1274	33319	
1275	33269	
1276	33252	
1277	33268	
1278	33295	
1279	33312	
1280	33308	
1281	33293	
1282	33285	
1283	33293	
1284	33312	
1285	33326	
1286	33321	
1287	33297	
1288	33273	
1289	33270	
1290	33296	
1291	33342	
1292	33381	
1293	33391	
1294	33368	
1295	33326	
1296	33292	
1297	33282	
1298	33296	
1299	33315	
1300	33321	
1301	33304	
1302	33274	
1303	33252	
1304	33256	
1305	33290	
1306	33341	
1307	33389	
1308	33417	
1309	33420	
1310	33404	
1311	33385	
1312	33378	
1313	33393	
1314	33432	
1315	33496	
1316	33583	
1317	33698	
1318	33850	
1319	34048	
1320	34293	
1321	34576	
1322	34866	
1323	35122	
1324	35303	
1325	35380	
1326	35348	
1327	35226	
1328	35046	
1329	34834	
1330	34597	
1331	34324	
1332	33998	
1333	33614	
1334	33192	
1335	32772	
1336	32392	
1337	32069	
1338	31793	
1339	31531	
1340	31248	
1341	30925	
1342	30564	
1343	30181	
1344	29796	
1345	29418	
1346	29048	
1347	28685	
1348	28332	
1349	28002	
1350	27713	
1351	27481	
1352	27312	
1353	27195	
1354	27118	
1355	27069	
1356	27041	
1357	27031	
1358	27030	
1359	27022	
1360	26995	
1361	26952	
1362	26923	
1363	26947	
1364	27060	
1365	27272	
1366	27566	
1367	27911	
1368	28287	
1369	28686	
1370	29116	
1371	29577	
1372	30058	
1373	30535	
1374	30982	
1375	31392	
1376	31767	
1377	32116	
1378	32433	
1379	32700	
1380	32893	
1381	33009	
1382	33074	
1383	33140	
1384	33249	
1385	33415	
1386	33608	
1387	33779	
1388	33892	
1389	33948	
1390	33981	
1391	34026	
1392	34094	
1393	34164	
1394	34203	
1395	34192	
1396	34148	
1397	34105	
1398	34097	
1399	34125	
1400	34168	
1401	34197	
1402	34200	
1403	34190	
1404	34189	
1405	34208	
1406	34237	
1407	34252	
1408	34239	
1409	34204	
1410	34171	
1411	34161	
1412	34176	
1413	34201	
1414	34214	
1415	34209	
1416	34198	
1417	34201	
1418	34226	
1419	34259	
1420	34271	
1421	34243	
1422	34182	
1423	34122	
1424	34097	
1425	34126	
1426	34194	
1427	34264	
1428	34303	
1429	34299	
1430	34263	
1431	34219	
1432	34185	
1433	34169	
1434	34166	
1435	34171	
1436	34178	
1437	34181	
1438	34173	
1439	34149	
1440	34111	
1441	34076	
1442	34061	
1443	34080	
1444	34127	
1445	34181	
1446	34213	
1447	34211	
1448	34181	
1449	34145	
1450	34123	
1451	34123	
1452	34134	
1453	34140	
1454	34138	
1455	34135	
1456	34146	
1457	34174	
1458	34210	
1459	34233	
1460	34229	
1461	34199	
1462	34158	
1463	34126	
1464	34115	
1465	34126	
1466	34146	
1467	34165	
1468	34178	
1469	34185	
1470	34188	
1471	34190	
1472	34189	
1473	34184	
1474	34176	
1475	34166	
1476	34155	
1477	34141	
1478	34122	
1479	34098	
1480	34076	
1481	34068	
1482	34080	
1483	34110	
1484	34141	
1485	34154	
1486	34139	
1487	34102	
1488	34067	
1489	34059	
1490	34088	
1491	34143	
1492	34195	
1493	34216	
1494	34195	
1495	34148	
1496	34100	
1497	34076	
1498	34082	
1499	34106	
1500	34131	
1501	34143	
1502	34142	
1503	34131	
1504	34116	
1505	34100	
1506	34084	
1507	34070	
1508	34067	
1509	34079	
1510	34107	
1511	34142	
1512	34170	
1513	34181	
1514	34173	
1515	34153	
1516	34130	
1517	34112	
1518	34100	
1519	34093	
1520	34088	
1521	34087	
1522	34092	
1523	34105	
1524	34123	
1525	34142	
1526	34152	
1527	34151	
1528	34141	
1529	34134	
1530	34141	
1531	34165	
1532	34197	
1533	34221	
1534	34223	
1535	34201	
1536	34167	
1537	34138	
1538	34123	
1539	34123	
1540	34128	
1541	34131	
1542	34136	
1543	34150	
1544	34180	
1545	34223	
1546	34260	
1547	34278	
1548	34272	
1549	34253	
1550	34237	
1551	34236	
1552	34250	
1553	34267	
1554	34278	
1555	34282	
1556	34288	
1557	34299	
1558	34314	
1559	34323	
1560	34319	
1561	34302	
1562	34283	
1563	34273	
1564	34275	
1565	34282	
1566	34283	
1567	34277	
1568	34273	
1569	34283	
1570	34315	
1571	34358	
1572	34394	
1573	34405	
1574	34389	
1575	34362	
1576	34347	
1577	34356	
1578	34381	
1579	34400	
1580	34389	
1581	34340	
1582	34268	
1583	34203	
1584	34172	
1585	34185	
1586	34231	
1587	34284	
1588	34319	
1589	34326	
1590	34310	
1591	34287	
1592	34272	
1593	34268	
1594	34271	
1595	34270	
1596	34260	
1597	34241	
1598	34224	
1599	34220	
1600	34234	
1601	34262	
1602	34294	
1603	34315	
1604	34315	
1605	34292	
1606	34257	
1607	34230	
1608	34226	
1609	34252	
1610	34296	
1611	34335	
1612	34346	
1613	34320	
1614	34270	
1615	34221	
1616	34196	
1617	34201	
1618	34224	
1619	34243	
1620	34243	
1621	34224	
1622	34205	
1623	34203	
1624	34224	
1625	34260	
1626	34291	
1627	34303	
1628	34293	
1629	34269	
1630	34246	
1631	34236	
1632	34238	
1633	34247	
1634	34250	
1635	34244	
1636	34229	
1637	34209	
1638	34192	
1639	34178	
1640	34164	
1641	34149	
1642	34130	
1643	34111	
1644	34099	
1645	34103	
1646	34121	
1647	34147	
1648	34164	
1649	34156	
1650	34119	
1651	34058	
1652	33994	
1653	33945	
1654	33922	
1655	33923	
1656	33938	
1657	33951	
1658	33952	
1659	33939	
1660	33918	
1661	33894	
1662	33876	
1663	33867	
1664	33867	
1665	33871	
1666	33872	
1667	33864	
1668	33847	
1669	33824	
1670	33808	
1671	33809	
1672	33831	
1673	33865	
1674	33893	
1675	33895	
1676	33862	
1677	33805	
1678	33747	
1679	33715	
1680	33719	
1681	33748	
1682	33776	
1683	33779	
1684	33750	
1685	33703	
1686	33665	
1687	33655	
1688	33671	
1689	33694	
1690	33703	
1691	33691	
1692	33673	
1693	33668	
1694	33686	
1695	33718	
1696	33744	
1697	33744	
1698	33721	
1699	33692	
1700	33675	
1701	33678	
1702	33689	
1703	33694	
1704	33683	
1705	33666	
1706	33660	
1707	33676	
1708	33705	
1709	33727	
1710	33723	
1711	33692	
1712	33652	
1713	33628	
1714	33637	
1715	33672	
1716	33712	
1717	33735	
1718	33728	
1719	33695	
1720	33653	
1721	33613	
1722	33583	
1723	33564	
1724	33554	
1725	33553	
1726	33565	
1727	33587	
1728	33613	
1729	33634	
1730	33645	
1731	33647	
1732	33649	
1733	33657	
1734	33670	
1735	33682	
1736	33684	
1737	33674	
1738	33659	
1739	33651	
1740	33659	
1741	33684	
1742	33715	
1743	33738	
1744	33742	
1745	33729	
1746	33711	
1747	33701	
1748	33705	
1749	33721	
1750	33736	
1751	33740	
1752	33729	
1753	33710	
1754	33693	
1755	33684	
1756	33684	
1757	33683	
1758	33678	
1759	33666	
1760	33655	
1761	33652	
1762	33657	
1763	33665	
1764	33666	
1765	33658	
1766	33647	
1767	33646	
1768	33665	
1769	33700	
1770	33739	
1771	33764	
1772	33766	
1773	33752	
1774	33739	
1775	33740	
1776	33756	
1777	33772	
1778	33771	
1779	33746	
1780	33709	
1781	33680	
1782	33676	
1783	33698	
1784	33728	
1785	33748	
1786	33746	
1787	33730	
1788	33718	
1789	33726	
1790	33755	
1791	33788	
1792	33802	
1793	33782	
1794	33734	
1795	33681	
1796	33648	
1797	33646	
1798	33667	
1799	33691	
1800	33699	
1801	33682	
1802	33651	
1803	33619	
1804	33602	
1805	33602	
1806	33615	
1807	33633	
1808	33649	
1809	33657	
1810	33654	
1811	33641	
1812	33625	
1813	33615	
1814	33620	
1815	33640	
1816	33662	
1817	33669	
1818	33653	
1819	33621	
1820	33594	
1821	33596	
1822	33632	
1823	33685	
1824	33724	
1825	33723	
1826	33681	
1827	33621	
1828	33577	
1829	33573	
1830	33605	
1831	33646	
1832	33661	
1833	33633	
1834	33569	
1835	33500	
1836	33457	
1837	33454	
1838	33479	
1839	33508	
1840	33517	
1841	33498	
1842	33464	
1843	33435	
1844	33428	
1845	33443	
1846	33468	
1847	33486	
1848	33491	
1849	33486	
1850	33483	
1851	33493	
1852	33517	
1853	33544	
1854	33561	
1855	33557	
1856	33532	
1857	33496	
1858	33463	
1859	33444	
1860	33442	
1861	33450	
1862	33457	
1863	33448	
1864	33419	
1865	33374	
1866	33330	
1867	33308	
1868	33320	
1869	33365	
1870	33426	
1871	33478	
1872	33500	
1873	33484	
1874	33442	
1875	33395	
1876	33366	
1877	33365	
1878	33384	
1879	33408	
1880	33419	
1881	33411	
1882	33390	
1883	33371	
1884	33364	
1885	33367	
1886	33375	
1887	33378	
1888	33375	
1889	33373	
1890	33379	
1891	33395	
1892	33415	
1893	33424	
1894	33414	
1895	33386	
1896	33352	
1897	33330	
1898	33331	
1899	33356	
1900	33388	
1901	33411	
1902	33410	
1903	33388	
1904	33359	
1905	33342	
1906	33352	
1907	33385	
1908	33427	
1909	33456	
1910	33456	
1911	33426	
1912	33380	
1913	33337	
1914	33314	
1915	33315	
1916	33332	
1917	33353	
1918	33367	
1919	33370	
1920	33366	
1921	33358	
1922	33350	
1923	33341	
1924	33330	
1925	33316	
1926	33303	
1927	33296	
1928	33295	
1929	33301	
1930	33308	
1931	33312	
1932	33310	
1933	33307	
1934	33309	
1935	33319	
1936	33340	
1937	33367	
1938	33390	
1939	33402	
1940	33398	
1941	33383	
1942	33365	
1943	33356	
1944	33360	
1945	33378	
1946	33404	
1947	33428	
1948	33442	
1949	33440	
1950	33423	
1951	33395	
1952	33362	
1953	33335	
1954	33317	
1955	33309	
1956	33306	
1957	33299	
1958	33285	
1959	33264	
1960	33244	
1961	33232	
1962	33234	
1963	33250	
1964	33277	
1965	33307	
1966	33336	
1967	33357	
1968	33367	
1969	33362	
1970	33343	
1971	33315	
1972	33291	
1973	33284	
1974	33301	
1975	33337	
1976	33376	
1977	33399	
1978	33396	
1979	33373	
1980	33344	
1981	33326	
1982	33327	
1983	33342	
1984	33359	
1985	33368	
1986	33367	
1987	33363	
1988	33363	
1989	33369	
1990	33373	
1991	33365	
1992	33343	
1993	33316	
1994	33300	
1995	33307	
1996	33335	
1997	33371	
1998	33396	
1999	33402	
2000	33395	
2001	33391	
2002	33406	
2003	33439	
2004	33479	
2005	33507	
2006	33517	
2007	33519	
2008	33533	
2009	33574	
2010	33642	
2011	33715	
2012	33767	
2013	33782	
2014	33767	
2015	33743	
2016	33736	
2017	33754	
2018	33785	
2019	33809	
2020	33808	
2021	33784	
2022	33755	
2023	33743	
2024	33758	
2025	33796	
2026	33838	
2027	33869	
2028	33887	
2029	33898	
2030	33918	
2031	33951	
2032	33991	
2033	34028	
2034	34049	
2035	34053	
2036	34047	
2037	34037	
2038	34027	
2039	34014	
2040	33991	
2041	33958	
2042	33922	
2043	33895	
2044	33884	
2045	33888	
2046	33892	
2047	33880	
2048	33845	
2049	33790	
2050	33729	
2051	33677	
2052	33639	
2053	33613	
2054	33589	
2055	33563	
2056	33535	
2057	33509	
2058	33487	
2059	33466	
2060	33440	
2061	33404	
2062	33359	
2063	33313	
2064	33276	
2065	33254	
2066	33248	
2067	33251	
2068	33255	
2069	33252	
2070	33245	
2071	33235	
2072	33228	
2073	33222	
2074	33214	
2075	33200	
2076	33183	
2077	33170	
2078	33172	
2079	33189	
2080	33209	
2081	33215	
2082	33193	
2083	33147	
2084	33095	
2085	33059	
2086	33052	
2087	33067	
2088	33082	
2089	33076	
2090	33045	
2091	33004	
2092	32977	
2093	32980	
2094	33009	
2095	33044	
2096	33062	
2097	33052	
2098	33026	
2099	33003	
2100	32999	
2101	33012	
2102	33024	
2103	33017	
2104	32987	
2105	32949	
2106	32927	
2107	32938	
2108	32978	
2109	33025	
2110	33052	
2111	33048	
2112	33022	
2113	32997	
2114	32997	
2115	33024	
2116	33063	
2117	33086	
2118	33073	
2119	33026	
2120	32962	
2121	32911	
2122	32891	
2123	32908	
2124	32947	
2125	32991	
2126	33023	
2127	33038	
2128	33041	
2129	33038	
2130	33035	
2131	33035	
2132	33035	
2133	33035	
2134	33034	
2135	33032	
2136	33028	
2137	33025	
2138	33027	
2139	33047	
2140	33099	
2141	33200	
2142	33356	
2143	33565	
2144	33816	
2145	34093	
2146	34372	
2147	34628	
2148	34833	
2149	34959	
2150	34992	
2151	34931	
2152	34796	
2153	34618	
2154	34420	
2155	34205	
2156	33960	
2157	33667	
2158	33323	
2159	32955	
2160	32607	
2161	32319	
2162	32102	
2163	31927	
2164	31739	
2165	31490	
2166	31162	
2167	30775	
2168	30371	
2169	29989	
2170	29642	
2171	29320	
2172	29002	
2173	28681	
2174	28370	
2175	28094	
2176	27879	
2177	27728	
2178	27633	
2179	27575	
2180	27537	
2181	27505	
2182	27463	
2183	27390	
2184	27267	
2185	27092	
2186	26900	
2187	26754	
2188	26726	
2189	26858	
2190	27143	
2191	27526	
2192	27939	
2193	28336	
2194	28713	
2195	29100	
2196	29528	
2197	30002	
2198	30492	
2199	30947	
2200	31329	
2201	31629	
2202	31867	
2203	32078	
2204	32281	
2205	32476	
2206	32645	
2207	32774	
2208	32864	
2209	32936	
2210	33011	
2211	33101	
2212	33204	
2213	33313	
2214	33418	
2215	33517	
2216	33604	
2217	33671	
2218	33707	
2219	33712	
2220	33698	
2221	33688	
2222	33701	
2223	33741	
2224	33795	
2225	33839	
2226	33857	
2227	33849	
2228	33828	
2229	33811	
2230	33808	
2231	33815	
2232	33820	
2233	33811	
2234	33785	
2235	33748	
2236	33714	
2237	33695	
2238	33695	
2239	33711	
2240	33734	
2241	33754	
2242	33764	
2243	33760	
2244	33744	
2245	33721	
2246	33698	
2247	33686	
2248	33688	
2249	33701	
2250	33714	
2251	33712	
2252	33690	
2253	33655	
2254	33628	
2255	33632	
2256	33672	
2257	33734	
2258	33788	
2259	33807	
2260	33780	
2261	33722	
2262	33664	
2263	33629	
2264	33627	
2265	33650	
2266	33682	
2267	33716	
2268	33748	
2269	33783	
2270	33814	
2271	33830	
2272	33816	
2273	33767	
2274	33698	
2275	33634	
2276	33599	
2277	33599	
2278	33624	
2279	33653	
2280	33668	
2281	33670	
2282	33668	
2283	33672	
2284	33684	
2285	33697	
2286	33700	
2287	33693	
2288	33683	
2289	33679	
2290	33685	
2291	33694	
2292	33696	
2293	33686	
2294	33668	
2295	33656	
2296	33660	
2297	33683	
2298	33715	
2299	33741	
2300	33751	
2301	33743	
2302	33723	
2303	33705	
2304	33695	
2305	33698	
2306	33712	
2307	33735	
2308	33761	
2309	33784	
2310	33795	
2311	33789	
2312	33765	
2313	33732	
2314	33707	
2315	33702	
2316	33718	
2317	33740	
2318	33749	
2319	33729	
2320	33685	
2321	33637	
2322	33612	
2323	33625	
2324	33670	
2325	33720	
2326	33749	
2327	33744	
2328	33718	
2329	33692	
2330	33684	
2331	33696	
2332	33709	
2333	33707	
2334	33686	
2335	33660	
2336	33651	
2337	33670	
2338	33709	
2339	33746	
2340	33759	
2341	33742	
2342	33710	
2343	33682	
2344	33675	
2345	33689	
2346	33712	
2347	33733	
2348	33742	
2349	33742	
2350	33736	
2351	33728	
2352	33717	
2353	33701	
2354	33685	
2355	33676	
2356	33682	
2357	33706	
2358	33739	
2359	33766	
2360	33774	
2361	33758	
2362	33725	
2363	33691	
2364	33674	
2365	33683	
2366	33715	
2367	33754	
2368	33786	
2369	33800	
2370	33799	
2371	33790	
2372	33782	
2373	33781	
2374	33783	
2375	33784	
2376	33779	
2377	33770	
2378	33766	
2379	33771	
2380	33791	
2381	33822	
2382	33852	
2383	33869	
2384	33865	
2385	33841	
2386	33807	
2387	33779	
2388	33774	
2389	33797	
2390	33844	
2391	33898	
2392	33942	
2393	33965	
2394	33968	
2395	33960	
2396	33951	
2397	33946	
2398	33942	
2399	33934	
2400	33919	
2401	33903	
2402	33894	
2403	33897	
2404	33911	
2405	33926	
2406	33933	
2407	33929	
2408	33922	
2409	33924	
2410	33948	
2411	33992	
2412	34040	
2413	34068	
2414	34058	
2415	34009	
2416	33941	
2417	33884	
2418	33859	
2419	33870	
2420	33901	
2421	33931	
2422	33946	
2423	33945	
2424	33939	
2425	33943	
2426	33962	
2427	33992	
2428	34019	
2429	34030	
2430	34016	
2431	33979	
2432	33930	
2433	33885	
2434	33854	
2435	33840	
2436	33836	
2437	33835	
2438	33828	
2439	33814	
2440	33793	
2441	33769	
2442	33747	
2443	33730	
2444	33722	
2445	33724	
2446	33738	
2447	33762	
2448	33789	
2449	33813	
2450	33825	
2451	33821	
2452	33802	
2453	33776	
2454	33749	
2455	33729	
2456	33713	
2457	33698	
2458	33679	
2459	33658	
2460	33645	
2461	33647	
2462	33669	
2463	33701	
2464	33727	
2465	33736	
2466	33724	
2467	33703	
2468	33690	
2469	33694	
2470	33712	
2471	33726	
2472	33718	
2473	33685	
2474	33639	
2475	33598	
2476	33580	
2477	33586	
2478	33602	
2479	33609	
2480	33596	
2481	33565	
2482	33533	
2483	33514	
2484	33516	
2485	33534	
2486	33551	
2487	33555	
2488	33538	
2489	33507	
2490	33476	
2491	33457	
2492	33457	
2493	33470	
2494	33484	
2495	33486	
2496	33467	
2497	33434	
2498	33402	
2499	33388	
2500	33400	
2501	33432	
2502	33467	
2503	33483	
2504	33468	
2505	33429	
2506	33387	
2507	33364	
2508	33369	
2509	33392	
2510	33414	
2511	33414	
2512	33384	
2513	33335	
2514	33286	
2515	33257	
2516	33251	
2517	33260	
2518	33266	
2519	33254	
2520	33222	
2521	33180	
2522	33146	
2523	33139	
2524	33166	
2525	33219	
2526	33279	
2527	33327	
2528	33350	
2529	33352	
2530	33342	
2531	33333	
2532	33326	
2533	33317	
2534	33294	
2535	33255	
2536	33206	
2537	33164	
2538	33145	
2539	33154	
2540	33185	
2541	33222	
2542	33249	
2543	33259	
2544	33258	
2545	33259	
2546	33276	
2547	33311	
2548	33356	
2549	33395	
2550	33411	
2551	33397	
2552	33357	
2553	33306	
2554	33264	
2555	33245	
2556	33253	
2557	33280	
2558	33310	
2559	33330	
2560	33330	
2561	33313	
2562	33287	
2563	33264	
2564	33256	
2565	33265	
2566	33290	
2567	33324	
2568	33355	
2569	33375	
2570	33379	
2571	33371	
2572	33361	
2573	33357	
2574	33364	
2575	33377	
2576	33387	
2577	33385	
2578	33367	
2579	33342	
2580	33321	
2581	33314	
2582	33325	
2583	33344	
2584	33360	
2585	33362	
2586	33349	
2587	33332	
2588	33325	
2589	33338	
2590	33372	
2591	33414	
2592	33444	
2593	33449	
2594	33429	
2595	33396	
2596	33368	
2597	33356	
2598	33359	
2599	33363	
2600	33353	
2601	33321	
2602	33277	
2603	33238	
2604	33222	
2605	33234	
2606	33268	
2607	33308	
2608	33341	
2609	33358	
2610	33363	
2611	33361	
2612	33359	
2613	33358	
2614	33355	
2615	33349	
2616	33340	
2617	33331	
2618	33324	
2619	33317	
2620	33310	
2621	33301	
2622	33289	
2623	33278	
2624	33273	
2625	33275	
2626	33286	
2627	33303	
2628	33324	
2629	33346	
2630	33365	
2631	33375	
2632	33369	
2633	33345	
2634	33308	
2635	33270	
2636	33250	
2637	33258	
2638	33293	
2639	33335	
2640	33360	
2641	33346	
2642	33295	
2643	33229	
2644	33183	
2645	33184	
2646	33232	
2647	33302	
2648	33356	
2649	33363	
2650	33321	
2651	33253	
2652	33195	
2653	33172	
2654	33188	
2655	33224	
2656	33251	
2657	33251	
2658	33227	
2659	33194	
2660	33171	
2661	33164	
2662	33169	
2663	33173	
2664	33166	
2665	33153	
2666	33143	
2667	33147	
2668	33166	
2669	33192	
2670	33212	
2671	33218	
2672	33212	
2673	33203	
2674	33201	
2675	33209	
2676	33221	
2677	33224	
2678	33212	
2679	33183	
2680	33148	
2681	33119	
2682	33104	
2683	33105	
2684	33119	
2685	33139	
2686	33159	
2687	33178	
2688	33194	
2689	33202	
2690	33200	
2691	33186	
2692	33163	
2693	33138	
2694	33115	
2695	33101	
2696	33094	
2697	33088	
2698	33079	
2699	33063	
2700	33042	
2701	33021	
2702	33011	
2703	33016	
2704	33039	
2705	33074	
2706	33106	
2707	33123	
2708	33116	
2709	33091	
2710	33062	
2711	33048	
2712	33062	
2713	33097	
2714	33136	
2715	33156	
2716	33142	
2717	33102	
2718	33056	
2719	33028	
2720	33028	
2721	33049	
2722	33073	
2723	33084	
2724	33079	
2725	33065	
2726	33058	
2727	33066	
2728	33086	
2729	33109	
2730	33124	
2731	33127	
2732	33122	
2733	33115	
2734	33109	
2735	33099	
2736	33080	
2737	33051	
2738	33018	
2739	32993	
2740	32985	
2741	32993	
2742	33011	
2743	33029	
2744	33042	
2745	33051	
2746	33060	
2747	33073	
2748	33087	
2749	33096	
2750	33096	
2751	33088	
2752	33078	
2753	33072	
2754	33071	
2755	33070	
2756	33067	
2757	33061	
2758	33058	
2759	33067	
2760	33085	
2761	33104	
2762	33108	
2763	33089	
2764	33050	
2765	33011	
2766	32991	
2767	32997	
2768	33020	
2769	33038	
2770	33032	
2771	33002	
2772	32964	
2773	32940	
2774	32948	
2775	32984	
2776	33030	
2777	33065	
2778	33074	
2779	33062	
2780	33041	
2781	33027	
2782	33023	
2783	33026	
2784	33029	
2785	33028	
2786	33028	
2787	33034	
2788	33049	
2789	33066	
2790	33073	
2791	33059	
2792	33025	
2793	32982	
2794	32948	
2795	32938	
2796	32954	
2797	32989	
2798	33025	
2799	33047	
2800	33050	
2801	33034	
2802	33010	
2803	32989	
2804	32979	
2805	32983	
2806	32996	
2807	33011	
2808	33019	
2809	33018	
2810	33011	
2811	33008	
2812	33019	
2813	33051	
2814	33096	
2815	33141	
2816	33172	
2817	33181	
2818	33174	
2819	33165	
2820	33168	
2821	33190	
2822	33227	
2823	33270	
2824	33309	
2825	33343	
2826	33374	
2827	33403	
2828	33428	
2829	33445	
2830	33452	
2831	33449	
2832	33441	
2833	33432	
2834	33423	
2835	33408	
2836	33386	
2837	33358	
2838	33338	
2839	33340	
2840	33371	
2841	33424	
2842	33483	
2843	33527	
2844	33552	
2845	33564	
2846	33580	
2847	33611	
2848	33654	
2849	33696	
2850	33719	
2851	33715	
2852	33690	
2853	33661	
2854	33639	
2855	33628	
2856	33621	
2857	33608	
2858	33589	
2859	33568	
2860	33555	
2861	33553	
2862	33557	
2863	33554	
2864	33533	
2865	33495	
2866	33449	
2867	33408	
2868	33381	
2869	33364	
2870	33345	
2871	33313	
2872	33267	
2873	33215	
2874	33170	
2875	33140	
2876	33124	
2877	33112	
2878	33092	
2879	33060	
2880	33019	
2881	32979	
2882	32948	
2883	32932	
2884	32930	
2885	32936	
2886	32945	
2887	32952	
2888	32955	
2889	32956	
2890	32958	
2891	32965	
2892	32979	
2893	32993	
2894	32997	
2895	32982	
2896	32946	
2897	32900	
2898	32860	
2899	32840	
2900	32844	
2901	32861	
2902	32871	
2903	32860	
2904	32829	
2905	32788	
2906	32756	
2907	32743	
2908	32748	
2909	32760	
2910	32766	
2911	32762	
2912	32754	
2913	32751	
2914	32757	
2915	32770	
2916	32778	
2917	32774	
2918	32758	
2919	32739	
2920	32727	
2921	32724	
2922	32724	
2923	32720	
2924	32705	
2925	32685	
2926	32674	
2927	32683	
2928	32711	
2929	32746	
2930	32770	
2931	32772	
2932	32753	
2933	32727	
2934	32711	
2935	32714	
2936	32731	
2937	32749	
2938	32759	
2939	32760	
2940	32759	
2941	32768	
2942	32787	
2943	32808	
2944	32816	
2945	32804	
2946	32772	
2947	32736	
2948	32711	
2949	32708	
2950	32729	
2951	32764	
2952	32809	
2953	32863	
2954	32935	
2955	33037	
2956	33178	
2957	33363	
2958	33585	
2959	33834	
2960	34089	
2961	34328	
2962	34523	
2963	34649	
2964	34693	
2965	34656	
2966	34554	
2967	34410	
2968	34237	
2969	34037	
2970	33796	
2971	33504	
2972	33167	
2973	32809	
2974	32468	
2975	32169	
2976	31917	
2977	31686	
2978	31440	
2979	31149	
2980	30810	
2981	30440	
2982	30068	
2983	29713	
2984	29373	
2985	29035	
2986	28690	
2987	28345	
2988	28031	
2989	27783	
2990	27624	
2991	27542	
2992	27503	
2993	27468	
2994	27410	
2995	27329	
2996	27237	
2997	27147	
2998	27053	
2999	26945	
3000	26818	
3001	26699	
3002	26637	
3003	26689	
3004	26886	
3005	27218	
3006	27635	
3007	28078	
3008	28501	
3009	28895	
3010	29274	
3011	29666	
3012	30081	
3013	30512	
3014	30932	
3015	31311	
3016	31629	
3017	31880	
3018	32072	
3019	32225	
3020	32359	
3021	32490	
3022	32627	
3023	32763	
3024	32882	
3025	32972	
3026	33033	
3027	33080	
3028	33136	
3029	33217	
3030	33317	
3031	33413	
3032	33475	
3033	33488	
3034	33464	
3035	33430	
3036	33415	
3037	33431	
3038	33465	
3039	33495	
3040	33500	
3041	33475	
3042	33433	
3043	33395	
3044	33374	
3045	33371	
3046	33376	
3047	33379	
3048	33374	
3049	33364	
3050	33354	
3051	33346	
3052	33335	
3053	33318	
3054	33295	
3055	33278	
3056	33282	
3057	33315	
3058	33370	
3059	33426	
3060	33457	
3061	33446	
3062	33398	
3063	33339	
3064	33295	
3065	33284	
3066	33301	
3067	33326	
3068	33339	
3069	33329	
3070	33307	
3071	33291	
3072	33297	
3073	33327	
3074	33367	
3075	33398	
3076	33408	
3077	33396	
3078	33374	
3079	33355	
3080	33347	
3081	33347	
3082	33347	
3083	33340	
3084	33325	
3085	33307	
3086	33296	
3087	33294	
3088	33303	
3089	33318	
3090	33334	
3091	33350	
3092	33366	
3093	33385	
3094	33404	
3095	33418	
3096	33417	
3097	33400	
3098	33369	
3099	33337	
3100	33314	
3101	33308	
3102	33317	
3103	33331	
3104	33344	
3105	33353	
3106	33362	
3107	33378	
3108	33402	
3109	33428	
3110	33440	
3111	33427	
3112	33386	
3113	33327	
3114	33273	
3115	33244	
3116	33250	
3117	33281	
3118	33316	
3119	33333	
3120	33323	
3121	33293	
3122	33262	
3123	33252	
3124	33270	
3125	33308	
3126	33345	
3127	33362	
3128	33350	
3129	33314	
3130	33276	
3131	33254	
3132	33261	
3133	33294	
3134	33337	
3135	33373	
3136	33390	
3137	33385	
3138	33366	
3139	33343	
3140	33324	
3141	33314	
3142	33313	
3143	33316	
3144	33319	
3145	33321	
3146	33319	
3147	33315	
3148	33311	
3149	33310	
3150	33312	
3151	33320	
3152	33334	
3153	33353	
3154	33374	
3155	33389	
3156	33388	
3157	33366	
3158	33324	
3159	33276	
3160	33240	
3161	33233	
3162	33258	
3163	33305	
3164	33355	
3165	33390	
3166	33403	
3167	33397	
3168	33383	
3169	33370	
3170	33362	
3171	33360	
3172	33365	
3173	33380	
3174	33407	
3175	33445	
3176	33486	
3177	33517	
3178	33528	
3179	33518	
3180	33497	
3181	33479	
3182	33475	
3183	33487	
3184	33511	
3185	33534	
3186	33551	
3187	33563	
3188	33578	
3189	33599	
3190	33623	
3191	33641	
3192	33641	
3193	33621	
3194	33589	
3195	33560	
3196	33542	
3197	33538	
3198	33537	
3199	33530	
3200	33514	
3201	33498	
3202	33495	
3203	33515	
3204	33554	
3205	33597	
3206	33626	
3207	33631	
3208	33617	
3209	33600	
3210	33595	
3211	33607	
3212	33630	
3213	33648	
3214	33655	
3215	33652	
3216	33652	
3217	33663	
3218	33683	
3219	33699	
3220	33697	
3221	33672	
3222	33639	
3223	33618	
3224	33625	
3225	33659	
3226	33701	
3227	33726	
3228	33718	
3229	33679	
3230	33628	
3231	33591	
3232	33583	
3233	33605	
3234	33640	
3235	33665	
3236	33664	
3237	33632	
3238	33584	
3239	33539	
3240	33517	
3241	33522	
3242	33545	
3243	33568	
3244	33573	
3245	33559	
3246	33539	
3247	33530	
3248	33542	
3249	33571	
3250	33601	
3251	33614	
3252	33604	
3253	33582	
3254	33563	
3255	33559	
3256	33570	
3257	33584	
3258	33584	
3259	33564	
3260	33531	
3261	33500	
3262	33484	
3263	33490	
3264	33511	
3265	33537	
3266	33556	
3267	33562	
3268	33556	
3269	33542	
3270	33526	
3271	33512	
3272	33502	
3273	33494	
3274	33482	
3275	33461	
3276	33430	
3277	33394	
3278	33361	
3279	33338	
3280	33332	
3281	33344	
3282	33368	
3283	33398	
3284	33427	
3285	33445	
3286	33449	
3287	33436	
3288	33411	
3289	33379	
3290	33349	
3291	33324	
3292	33309	
3293	33300	
3294	33294	
3295	33287	
3296	33277	
3297	33267	
3298	33259	
3299	33254	
3300	33249	
3301	33238	
3302	33217	
3303	33190	
3304	33162	
3305	33147	
3306	33151	
3307	33171	
3308	33196	
3309	33214	
3310	33220	
3311	33216	
3312	33213	
3313	33217	
3314	33228	
3315	33237	
3316	33230	
3317	33200	
3318	33150	
3319	33094	
3320	33050	
3321	33032	
3322	33039	
3323	33064	
3324	33091	
3325	33109	
3326	33113	
3327	33104	
3328	33087	
3329	33066	
3330	33045	
3331	33024	
3332	33005	
3333	32992	
3334	32990	
3335	33000	
3336	33019	
3337	33040	
3338	33054	
3339	33055	
3340	33042	
3341	33023	
3342	33008	
3343	33003	
3344	33009	
3345	33020	
3346	33032	
3347	33040	
3348	33046	
3349	33057	
3350	33073	
3351	33090	
3352	33098	
3353	33090	
3354	33063	
3355	33027	
3356	32999	
3357	32993	
3358	33012	
3359	33044	
3360	33068	
3361	33066	
3362	33032	
3363	32979	
3364	32931	
3365	32910	
3366	32928	
3367	32976	
3368	33032	
3369	33075	
3370	33088	
3371	33074	
3372	33043	
3373	33015	
3374	33001	
3375	33006	
3376	33025	
3377	33050	
3378	33075	
3379	33096	
3380	33112	
3381	33123	
3382	33128	
3383	33128	
3384	33123	
3385	33115	
3386	33106	
3387	33097	
3388	33092	
3389	33091	
3390	33096	
3391	33110	
3392	33131	
3393	33152	
3394	33164	
3395	33161	
3396	33143	
3397	33117	
3398	33098	
3399	33096	
3400	33112	
3401	33132	
3402	33141	
3403	33124	
3404	33082	
3405	33033	
3406	32999	
3407	32998	
3408	33034	
3409	33097	
3410	33164	
3411	33216	
3412	33243	
3413	33248	
3414	33242	
3415	33234	
3416	33228	
3417	33217	
3418	33195	
3419	33160	
3420	33118	
3421	33080	
3422	33060	
3423	33059	
3424	33073	
3425	33090	
3426	33098	
3427	33094	
3428	33083	
3429	33074	
3430	33077	
3431	33094	
3432	33118	
3433	33138	
3434	33143	
3435	33129	
3436	33097	
3437	33055	
3438	33014	
3439	32982	
3440	32964	
3441	32960	
3442	32969	
3443	32989	
3444	33015	
3445	33041	
3446	33059	
3447	33065	
3448	33060	
3449	33052	
3450	33047	
3451	33050	
3452	33055	
3453	33057	
3454	33051	
3455	33041	
3456	33037	
3457	33045	
3458	33065	
3459	33087	
3460	33096	
3461	33087	
3462	33065	
3463	33045	
3464	33042	
3465	33058	
3466	33081	
3467	33090	
3468	33072	
3469	33032	
3470	32989	
3471	32964	
3472	32969	
3473	32992	
3474	33013	
3475	33011	
3476	32984	
3477	32945	
3478	32916	
3479	32911	
3480	32927	
3481	32950	
3482	32962	
3483	32958	
3484	32944	
3485	32932	
3486	32926	
3487	32921	
3488	32905	
3489	32874	
3490	32834	
3491	32804	
3492	32796	
3493	32812	
3494	32840	
3495	32862	
3496	32867	
3497	32856	
3498	32843	
3499	32838	
3500	32846	
3501	32861	
3502	32872	
3503	32873	
3504	32864	
3505	32852	
3506	32841	
3507	32832	
3508	32822	
3509	32809	
3510	32796	
3511	32791	
3512	32796	
3513	32810	
3514	32822	
3515	32824	
3516	32813	
3517	32796	
3518	32782	
3519	32779	
3520	32784	
3521	32787	
3522	32780	
3523	32764	
3524	32749	
3525	32749	
3526	32768	
3527	32799	
3528	32827	
3529	32839	
3530	32835	
3531	32824	
3532	32818	
3533	32821	
3534	32828	
3535	32827	
3536	32810	
3537	32779	
3538	32749	
3539	32736	
3540	32746	
3541	32773	
3542	32799	
3543	32812	
3544	32805	
3545	32786	
3546	32768	
3547	32762	
3548	32770	
3549	32782	
3550	32790	
3551	32788	
3552	32778	
3553	32765	
3554	32758	
3555	32760	
3556	32768	
3557	32778	
3558	32785	
3559	32786	
3560	32783	
3561	32779	
3562	32778	
3563	32781	
3564	32787	
3565	32796	
3566	32807	
3567	32819	
3568	32834	
3569	32849	
3570	32863	
3571	32873	
3572	32874	
3573	32867	
3574	32857	
3575	32848	
3576	32847	
3577	32853	
3578	32860	
3579	32859	
3580	32845	
3581	32821	
3582	32794	
3583	32776	
3584	32774	
3585	32789	
3586	32814	
3587	32840	
3588	32862	
3589	32877	
3590	32883	
3591	32880	
3592	32865	
3593	32838	
3594	32805	
3595	32777	
3596	32764	
3597	32773	
3598	32797	
3599	32823	
3600	32833	
3601	32821	
3602	32791	
3603	32759	
3604	32741	
3605	32745	
3606	32766	
3607	32792	
3608	32809	
3609	32810	
3610	32801	
3611	32791	
3612	32790	
3613	32799	
3614	32813	
3615	32824	
3616	32827	
3617	32820	
3618	32809	
3619	32801	
3620	32803	
3621	32817	
3622	32842	
3623	32873	
3624	32903	
3625	32928	
3626	32946	
3627	32959	
3628	32970	
3629	32985	
3630	33007	
3631	33035	
3632	33064	
3633	33088	
3634	33101	
3635	33100	
3636	33089	
3637	33076	
3638	33072	
3639	33085	
3640	33114	
3641	33152	
3642	33185	
3643	33200	
3644	33195	
3645	33177	
3646	33160	
3647	33157	
3648	33172	
3649	33195	
3650	33211	
3651	33209	
3652	33193	
3653	33177	
3654	33184	
3655	33222	
3656	33286	
3657	33351	
3658	33397	
3659	33413	
3660	33409	
3661	33408	
3662	33427	
3663	33463	
3664	33495	
3665	33495	
3666	33449	
3667	33371	
3668	33294	
3669	33256	
3670	33271	
3671	33321	
3672	33369	
3673	33380	
3674	33340	
3675	33265	
3676	33186	
3677	33128	
3678	33095	
3679	33070	
3680	33031	
3681	32971	
3682	32904	
3683	32854	
3684	32843	
3685	32870	
3686	32912	
3687	32936	
3688	32921	
3689	32869	
3690	32802	
3691	32750	
3692	32729	
3693	32735	
3694	32750	
3695	32751	
3696	32730	
3697	32693	
3698	32658	
3699	32640	
3700	32644	
3701	32661	
3702	32674	
3703	32672	
3704	32652	
3705	32620	
3706	32587	
3707	32564	
3708	32557	
3709	32563	
3710	32576	
3711	32585	
3712	32582	
3713	32560	
3714	32522	
3715	32479	
3716	32443	
3717	32423	
3718	32418	
3719	32418	
3720	32412	
3721	32395	
3722	32372	
3723	32359	
3724	32368	
3725	32401	
3726	32448	
3727	32487	
3728	32502	
3729	32487	
3730	32455	
3731	32421	
3732	32401	
3733	32398	
3734	32403	
3735	32408	
3736	32410	
3737	32414	
3738	32425	
3739	32443	
3740	32459	
3741	32458	
3742	32431	
3743	32389	
3744	32356	
3745	32354	
3746	32394	
3747	32460	
3748	32520	
3749	32543	
3750	32520	
3751	32466	
3752	32416	
3753	32398	
3754	32421	
3755	32467	
3756	32507	
3757	32517	
3758	32493	
3759	32449	
3760	32408	
3761	32389	
3762	32399	
3763	32431	
3764	32479	
3765	32539	
3766	32620	
3767	32732	
3768	32886	
3769	33084	
3770	33318	
3771	33573	
3772	33825	
3773	34048	
3774	34217	
3775	34309	
3776	34315	
3777	34243	
3778	34108	
3779	33935	
3780	33737	
3781	33518	
3782	33268	
3783	32978	
3784	32648	
3785	32292	
3786	31935	
3787	31600	
3788	31299	
3789	31022	
3790	30748	
3791	30455	
3792	30130	
3793	29772	
3794	29393	
3795	29008	
3796	28630	
3797	28268	
3798	27930	
3799	27626	
3800	27360	
3801	27136	
3802	26949	
3803	26793	
3804	26668	
3805	26577	
3806	26525	
3807	26508	
3808	26508	
3809	26498	
3810	26455	
3811	26378	
3812	26295	
3813	26250	
3814	26281	
3815	26407	
3816	26618	
3817	26895	
3818	27221	
3819	27588	
3820	27995	
3821	28433	
3822	28884	
3823	29325	
3824	29745	
3825	30147	
3826	30537	
3827	30915	
3828	31265	
3829	31563	
3830	31792	
3831	31953	
3832	32070	
3833	32172	
3834	32282	
3835	32408	
3836	32542	
3837	32667	
3838	32764	
3839	32826	
3840	32858	
3841	32878	
3842	32913	
3843	32978	
3844	33073	
3845	33175	
3846	33252	
3847	33280	
3848	33261	
3849	33218	
3850	33178	
3851	33161	
3852	33168	
3853	33189	
3854	33213	
3855	33233	
3856	33243	
3857	33238	
3858	33215	
3859	33181	
3860	33153	
3861	33155	
3862	33198	
3863	33267	
3864	33327	
3865	33343	
3866	33305	
3867	33239	
3868	33190	
3869	33190	
3870	33238	
3871	33297	
3872	33325	
3873	33302	
3874	33244	
3875	33194	
3876	33186	
3877	33222	
3878	33268	
3879	33285	
3880	33254	
3881	33190	
3882	33131	
3883	33114	
3884	33145	
3885	33202	
3886	33250	
3887	33267	
3888	33256	
3889	33238	
3890	33236	
3891	33254	
3892	33275	
3893	33278	
3894	33254	
3895	33211	
3896	33175	
3897	33168	
3898	33198	
3899	33250	
3900	33297	
3901	33318	
3902	33305	
3903	33268	
3904	33224	
3905	33192	
3906	33177	
3907	33179	
3908	33187	
3909	33195	
3910	33200	
3911	33207	
3912	33220	
3913	33240	
3914	33261	
3915	33270	
3916	33257	
3917	33220	
3918	33169	
3919	33125	
3920	33104	
3921	33112	
3922	33139	
3923	33164	
3924	33170	
3925	33150	
3926	33117	
3927	33089	
3928	33081	
3929	33094	
3930	33114	
3931	33122	
3932	33107	
3933	33075	
3934	33044	
3935	33032	
3936	33045	
3937	33075	
3938	33102	
3939	33113	
3940	33102	
3941	33082	
3942	33070	
3943	33080	
3944	33111	
3945	33150	
3946	33180	
3947	33187	
3948	33172	
3949	33146	
3950	33126	
3951	33120	
3952	33127	
3953	33137	
3954	33140	
3955	33132	
3956	33118	
3957	33109	
3958	33111	
3959	33124	
3960	33140	
3961	33152	
3962	33155	
3963	33154	
3964	33157	
3965	33171	
3966	33196	
3967	33221	
3968	33236	
3969	33235	
3970	33221	
3971	33203	
3972	33193	
3973	33193	
3974	33200	
3975	33205	
3976	33201	
3977	33188	
3978	33174	
3979	33169	
3980	33179	
3981	33200	
3982	33221	
3983	33229	
3984	33218	
3985	33194	
3986	33170	
3987	33159	
3988	33166	
3989	33184	
3990	33200	
3991	33203	
3992	33188	
3993	33160	
3994	33128	
3995	33101	
3996	33084	
3997	33079	
3998	33086	
3999	33106	
4000	33137	
4001	33176	
4002	33214	
4003	33244	
4004	33264	
4005	33275	
4006	33285	
4007	33300	
4008	33319	
4009	33339	
4010	33352	
4011	33357	
4012	33356	
4013	33354	
4014	33351	
4015	33345	
4016	33328	
4017	33302	
4018	33275	
4019	33261	
4020	33271	
4021	33304	
4022	33346	
4023	33376	
4024	33382	
4025	33366	
4026	33343	
4027	33330	
4028	33334	
4029	33350	
4030	33365	
4031	33368	
4032	33360	
4033	33348	
4034	33343	
4035	33345	
4036	33351	
4037	33352	
4038	33348	
4039	33343	
4040	33346	
4041	33354	
4042	33360	
4043	33349	
4044	33318	
4045	33276	
4046	33247	
4047	33252	
4048	33292	
4049	33347	
4050	33384	
4051	33376	
4052	33321	
4053	33247	
4054	33188	
4055	33171	
4056	33194	
4057	33233	
4058	33258	
4059	33253	
4060	33224	
4061	33195	
4062	33186	
4063	33200	
4064	33225	
4065	33237	
4066	33225	
4067	33193	
4068	33163	
4069	33153	
4070	33170	
4071	33203	
4072	33229	
4073	33233	
4074	33214	
4075	33183	
4076	33158	
4077	33148	
4078	33149	
4079	33150	
4080	33142	
4081	33125	
4082	33107	
4083	33099	
4084	33102	
4085	33110	
4086	33110	
4087	33096	
4088	33074	
4089	33056	
4090	33056	
4091	33077	
4092	33108	
4093	33129	
4094	33121	
4095	33082	
4096	33025	
4097	32973	
4098	32946	
4099	32950	
4100	32975	
4101	33003	
4102	33019	
4103	33018	
4104	33006	
4105	32996	
4106	32995	
4107	33002	
4108	33010	
4109	33010	
4110	32998	
4111	32977	
4112	32953	
4113	32932	
4114	32914	
4115	32893	
4116	32867	
4117	32839	
4118	32814	
4119	32800	
4120	32798	
4121	32803	
4122	32802	
4123	32790	
4124	32768	
4125	32749	
4126	32745	
4127	32761	
4128	32789	
4129	32812	
4130	32814	
4131	32789	
4132	32749	
4133	32714	
4134	32702	
4135	32714	
4136	32738	
4137	32757	
4138	32755	
4139	32733	
4140	32702	
4141	32679	
4142	32676	
4143	32694	
4144	32722	
4145	32746	
4146	32757	
4147	32752	
4148	32738	
4149	32721	
4150	32707	
4151	32698	
4152	32690	
4153	32683	
4154	32678	
4155	32679	
4156	32689	
4157	32706	
4158	32726	
4159	32739	
4160	32739	
4161	32722	
4162	32696	
4163	32671	
4164	32658	
4165	32665	
4166	32687	
4167	32717	
4168	32742	
4169	32756	
4170	32760	
4171	32759	
4172	32760	
4173	32762	
4174	32764	
4175	32760	
4176	32748	
4177	32731	
4178	32717	
4179	32714	
4180	32723	
4181	32739	
4182	32751	
4183	32750	
4184	32734	
4185	32711	
4186	32692	
4187	32688	
4188	32701	
4189	32724	
4190	32743	
4191	32748	
4192	32737	
4193	32717	
4194	32698	
4195	32689	
4196	32692	
4197	32701	
4198	32704	
4199	32695	
4200	32676	
4201	32657	
4202	32650	
4203	32664	
4204	32697	
4205	32737	
4206	32768	
4207	32781	
4208	32776	
4209	32764	
4210	32756	
4211	32759	
4212	32768	
4213	32775	
4214	32769	
4215	32750	
4216	32725	
4217	32706	
4218	32703	
4219	32718	
4220	32742	
4221	32765	
4222	32779	
4223	32783	
4224	32781	
4225	32777	
4226	32774	
4227	32771	
4228	32769	
4229	32771	
4230	32782	
4231	32804	
4232	32832	
4233	32855	
4234	32859	
4235	32837	
4236	32794	
4237	32747	
4238	32714	
4239	32706	
4240	32719	
4241	32740	
4242	32753	
4243	32749	
4244	32732	
4245	32715	
4246	32712	
4247	32728	
4248	32759	
4249	32792	
4250	32815	
4251	32820	
4252	32808	
4253	32784	
4254	32758	
4255	32736	
4256	32722	
4257	32716	
4258	32716	
4259	32719	
4260	32723	
4261	32724	
4262	32724	
4263	32725	
4264	32729	
4265	32735	
4266	32743	
4267	32748	
4268	32750	
4269	32747	
4270	32742	
4271	32735	
4272	32725	
4273	32713	
4274	32699	
4275	32687	
4276	32680	
4277	32682	
4278	32693	
4279	32705	
4280	32708	
4281	32696	
4282	32671	
4283	32644	
4284	32631	
4285	32639	
4286	32665	
4287	32696	
4288	32714	
4289	32706	
4290	32675	
4291	32633	
4292	32596	
4293	32577	
4294	32577	
4295	32589	
4296	32602	
4297	32609	
4298	32607	
4299	32601	
4300	32596	
4301	32595	
4302	32599	
4303	32606	
4304	32614	
4305	32621	
4306	32625	
4307	32624	
4308	32614	
4309	32595	
4310	32570	
4311	32545	
4312	32526	
4313	32520	
4314	32525	
4315	32537	
4316	32547	
4317	32548	
4318	32538	
4319	32523	
4320	32508	
4321	32503	
4322	32510	
4323	32528	
4324	32551	
4325	32571	
4326	32584	
4327	32588	
4328	32586	
4329	32580	
4330	32573	
4331	32565	
4332	32554	
4333	32542	
4334	32530	
4335	32524	
4336	32527	
4337	32537	
4338	32550	
4339	32560	
4340	32563	
4341	32557	
4342	32545	
4343	32533	
4344	32526	
4345	32524	
4346	32525	
4347	32527	
4348	32524	
4349	32516	
4350	32505	
4351	32496	
4352	32492	
4353	32497	
4354	32508	
4355	32519	
4356	32525	
4357	32523	
4358	32518	
4359	32515	
4360	32516	
4361	32520	
4362	32523	
4363	32518	
4364	32508	
4365	32501	
4366	32505	
4367	32521	
4368	32541	
4369	32550	
4370	32535	
4371	32495	
4372	32449	
4373	32418	
4374	32421	
4375	32458	
4376	32508	
4377	32543	
4378	32543	
4379	32506	
4380	32452	
4381	32410	
4382	32398	
4383	32417	
4384	32451	
4385	32476	
4386	32476	
4387	32453	
4388	32424	
4389	32409	
4390	32419	
4391	32449	
4392	32483	
4393	32504	
4394	32504	
4395	32486	
4396	32462	
4397	32443	
4398	32432	
4399	32430	
4400	32431	
4401	32437	
4402	32449	
4403	32470	
4404	32497	
4405	32519	
4406	32528	
4407	32518	
4408	32497	
4409	32481	
4410	32483	
4411	32509	
4412	32551	
4413	32593	
4414	32620	
4415	32628	
4416	32623	
4417	32621	
4418	32631	
4419	32654	
4420	32681	
4421	32699	
4422	32705	
4423	32703	
4424	32705	
4425	32721	
4426	32756	
4427	32805	
4428	32853	
4429	32885	
4430	32890	
4431	32866	
4432	32823	
4433	32776	
4434	32744	
4435	32736	
4436	32753	
4437	32782	
4438	32808	
4439	32819	
4440	32816	
4441	32812	
4442	32825	
4443	32864	
4444	32924	
4445	32986	
4446	33027	
4447	33034	
4448	33012	
4449	32978	
4450	32951	
4451	32941	
4452	32940	
4453	32935	
4454	32917	
4455	32888	
4456	32863	
4457	32858	
4458	32875	
4459	32902	
4460	32918	
4461	32907	
4462	32872	
4463	32830	
4464	32801	
4465	32797	
4466	32809	
4467	32817	
4468	32801	
4469	32757	
4470	32696	
4471	32639	
4472	32600	
4473	32581	
4474	32567	
4475	32541	
4476	32496	
4477	32436	
4478	32376	
4479	32333	
4480	32314	
4481	32315	
4482	32324	
4483	32328	
4484	32319	
4485	32295	
4486	32266	
4487	32243	
4488	32237	
4489	32253	
4490	32285	
4491	32320	
4492	32339	
4493	32330	
4494	32295	
4495	32248	
4496	32208	
4497	32189	
4498	32190	
4499	32197	
4500	32192	
4501	32171	
4502	32140	
4503	32119	
4504	32122	
4505	32147	
4506	32177	
4507	32187	
4508	32165	
4509	32118	
4510	32070	
4511	32047	
4512	32062	
4513	32103	
4514	32146	
4515	32167	
4516	32156	
4517	32125	
4518	32094	
4519	32084	
4520	32100	
4521	32140	
4522	32187	
4523	32229	
4524	32254	
4525	32258	
4526	32238	
4527	32201	
4528	32155	
4529	32113	
4530	32089	
4531	32088	
4532	32109	
4533	32139	
4534	32165	
4535	32179	
4536	32182	
4537	32182	
4538	32186	
4539	32194	
4540	32200	
4541	32196	
4542	32181	
4543	32166	
4544	32163	
4545	32181	
4546	32214	
4547	32244	
4548	32257	
4549	32249	
4550	32228	
4551	32211	
4552	32205	
4553	32210	
4554	32217	
4555	32228	
4556	32257	
4557	32329	
4558	32466	
4559	32673	
4560	32928	
4561	33199	
4562	33452	
4563	33665	
4564	33829	
4565	33939	
4566	33986	
4567	33961	
4568	33864	
4569	33707	
4570	33512	
4571	33301	
4572	33078	
4573	32831	
4574	32540	
4575	32200	
4576	31831	
4577	31470	
4578	31155	
4579	30896	
4580	30673	
4581	30445	
4582	30174	
4583	29848	
4584	29479	
4585	29096	
4586	28723	
4587	28371	
4588	28040	
4589	27726	
4590	27432	
4591	27166	
4592	26935	
4593	26746	
4594	26601	
4595	26504	
4596	26458	
4597	26458	
4598	26484	
4599	26505	
4600	26485	
4601	26408	
4602	26289	
4603	26173	
4604	26119	
4605	26173	
4606	26352	
4607	26635	
4608	26980	
4609	27346	
4610	27711	
4611	28080	
4612	28466	
4613	28877	
4614	29302	
4615	29717	
4616	30101	
4617	30451	
4618	30773	
4619	31071	
4620	31335	
4621	31547	
4622	31700	
4623	31811	
4624	31914	
4625	32042	
4626	32198	
4627	32358	
4628	32483	
4629	32552	
4630	32572	
4631	32577	
4632	32602	
4633	32663	
4634	32744	
4635	32814	
4636	32849	
4637	32843	
4638	32817	
4639	32798	
4640	32802	
4641	32822	
4642	32839	
4643	32835	
4644	32811	
4645	32787	
4646	32785	
4647	32814	
4648	32862	
4649	32902	
4650	32912	
4651	32891	
4652	32854	
4653	32822	
4654	32807	
4655	32803	
4656	32800	
4657	32790	
4658	32778	
4659	32776	
4660	32791	
4661	32818	
4662	32844	
4663	32855	
4664	32852	
4665	32844	
4666	32845	
4667	32860	
4668	32878	
4669	32884	
4670	32871	
4671	32844	
4672	32822	
4673	32821	
4674	32842	
4675	32874	
4676	32897	
4677	32899	
4678	32883	
4679	32861	
4680	32844	
4681	32836	
4682	32834	
4683	32833	
4684	32832	
4685	32837	
4686	32856	
4687	32883	
4688	32905	
4689	32905	
4690	32876	
4691	32828	
4692	32784	
4693	32769	
4694	32789	
4695	32832	
4696	32869	
4697	32875	
4698	32844	
4699	32792	
4700	32747	
4701	32733	
4702	32755	
4703	32798	
4704	32836	
4705	32851	
4706	32841	
4707	32818	
4708	32804	
4709	32810	
4710	32830	
4711	32850	
4712	32851	
4713	32828	
4714	32788	
4715	32750	
4716	32732	
4717	32738	
4718	32761	
4719	32785	
4720	32797	
4721	32795	
4722	32783	
4723	32773	
4724	32771	
4725	32779	
4726	32795	
4727	32813	
4728	32833	
4729	32852	
4730	32866	
4731	32870	
4732	32858	
4733	32829	
4734	32793	
4735	32763	
4736	32752	
4737	32764	
4738	32789	
4739	32812	
4740	32820	
4741	32813	
4742	32801	
4743	32799	
4744	32816	
4745	32848	
4746	32879	
4747	32894	
4748	32884	
4749	32854	
4750	32817	
4751	32787	
4752	32774	
4753	32779	
4754	32795	
4755	32816	
4756	32836	
4757	32853	
4758	32863	
4759	32866	
4760	32860	
4761	32847	
4762	32831	
4763	32816	
4764	32805	
4765	32799	
4766	32797	
4767	32798	
4768	32803	
4769	32812	
4770	32825	
4771	32838	
4772	32845	
4773	32842	
4774	32830	
4775	32814	
4776	32803	
4777	32805	
4778	32818	
4779	32836	
4780	32851	
4781	32855	
4782	32848	
4783	32834	
4784	32824	
4785	32825	
4786	32841	
4787	32871	
4788	32907	
4789	32939	
4790	32959	
4791	32964	
4792	32958	
4793	32949	
4794	32948	
4795	32960	
4796	32981	
4797	33001	
4798	33006	
4799	32988	
4800	32952	
4801	32911	
4802	32883	
4803	32880	
4804	32904	
4805	32944	
4806	32987	
4807	33022	
4808	33044	
4809	33059	
4810	33071	
4811	33082	
4812	33091	
4813	33090	
4814	33074	
4815	33045	
4816	33010	
4817	32981	
4818	32966	
4819	32971	
4820	32991	
4821	33018	
4822	33040	
4823	33052	
4824	33054	
4825	33052	
4826	33056	
4827	33068	
4828	33087	
4829	33105	
4830	33111	
4831	33099	
4832	33070	
4833	33029	
4834	32988	
4835	32957	
4836	32941	
4837	32943	
4838	32960	
4839	32984	
4840	33007	
4841	33023	
4842	33031	
4843	33034	
4844	33038	
4845	33051	
4846	33074	
4847	33099	
4848	33110	
4849	33097	
4850	33056	
4851	32999	
4852	32947	
4853	32918	
4854	32919	
4855	32941	
4856	32964	
4857	32973	
4858	32966	
4859	32954	
4860	32951	
4861	32967	
4862	32995	
4863	33021	
4864	33034	
4865	33030	
4866	33016	
4867	33003	
4868	32996	
4869	32994	
4870	32989	
4871	32976	
4872	32958	
4873	32944	
4874	32937	
4875	32936	
4876	32932	
4877	32916	
4878	32889	
4879	32856	
4880	32830	
4881	32816	
4882	32813	
4883	32814	
4884	32817	
4885	32823	
4886	32837	
4887	32860	
4888	32881	
4889	32888	
4890	32870	
4891	32832	
4892	32790	
4893	32763	
4894	32761	
4895	32778	
4896	32796	
4897	32800	
4898	32785	
4899	32759	
4900	32737	
4901	32728	
4902	32729	
4903	32730	
4904	32725	
4905	32714	
4906	32707	
4907	32713	
4908	32731	
4909	32753	
4910	32765	
4911	32761	
4912	32744	
4913	32728	
4914	32720	
4915	32721	
4916	32723	
4917	32718	
4918	32701	
4919	32682	
4920	32669	
4921	32668	
4922	32673	
4923	32671	
4924	32654	
4925	32624	
4926	32595	
4927	32585	
4928	32599	
4929	32630	
4930	32658	
4931	32665	
4932	32646	
4933	32613	
4934	32584	
4935	32571	
4936	32573	
4937	32581	
4938	32583	
4939	32579	
4940	32575	
4941	32584	
4942	32608	
4943	32637	
4944	32657	
4945	32655	
4946	32633	
4947	32606	
4948	32594	
4949	32608	
4950	32641	
4951	32676	
4952	32689	
4953	32670	
4954	32626	
4955	32579	
4956	32549	
4957	32546	
4958	32566	
4959	32593	
4960	32609	
4961	32606	
4962	32586	
4963	32559	
4964	32537	
4965	32527	
4966	32532	
4967	32550	
4968	32575	
4969	32600	
4970	32621	
4971	32631	
4972	32629	
4973	32621	
4974	32612	
4975	32610	
4976	32617	
4977	32628	
4978	32633	
4979	32628	
4980	32612	
4981	32596	
4982	32590	
4983	32601	
4984	32625	
4985	32650	
4986	32662	
4987	32656	
4988	32640	
4989	32628	
4990	32633	
4991	32657	
4992	32692	
4993	32723	
4994	32737	
4995	32734	
4996	32720	
4997	32706	
4998	32698	
4999	32698	
5000	32700	
5001	32699	
5002	32696	
5003	32692	
5004	32690	
5005	32689	
5006	32685	
5007	32674	
5008	32659	
5009	32644	
5010	32637	
5011	32641	
5012	32651	
5013	32657	
5014	32653	
5015	32637	
5016	32614	
5017	32592	
5018	32580	
5019	32580	
5020	32592	
5021	32614	
5022	32644	
5023	32679	
5024	32712	
5025	32733	
5026	32732	
5027	32707	
5028	32667	
5029	32627	
5030	32603	
5031	32600	
5032	32614	
5033	32633	
5034	32644	
5035	32642	
5036	32628	
5037	32610	
5038	32592	
5039	32577	
5040	32566	
5041	32562	
5042	32568	
5043	32587	
5044	32614	
5045	32638	
5046	32644	
5047	32626	
5048	32594	
5049	32567	
5050	32566	
5051	32593	
5052	32637	
5053	32669	
5054	32669	
5055	32633	
5056	32581	
5057	32541	
5058	32533	
5059	32558	
5060	32598	
5061	32631	
5062	32644	
5063	32639	
5064	32629	
5065	32626	
5066	32628	
5067	32626	
5068	32612	
5069	32585	
5070	32555	
5071	32533	
5072	32524	
5073	32525	
5074	32525	
5075	32517	
5076	32505	
5077	32500	
5078	32509	
5079	32530	
5080	32550	
5081	32554	
5082	32536	
5083	32509	
5084	32490	
5085	32496	
5086	32524	
5087	32556	
5088	32567	
5089	32546	
5090	32500	
5091	32453	
5092	32430	
5093	32439	
5094	32474	
5095	32512	
5096	32536	
5097	32540	
5098	32531	
5099	32522	
5100	32522	
5101	32531	
5102	32541	
5103	32544	
5104	32537	
5105	32524	
5106	32506	
5107	32489	
5108	32472	
5109	32461	
5110	32459	
5111	32471	
5112	32495	
5113	32523	
5114	32545	
5115	32551	
5116	32538	
5117	32511	
5118	32480	
5119	32452	
5120	32433	
5121	32422	
5122	32421	
5123	32435	
5124	32464	
5125	32502	
5126	32534	
5127	32544	
5128	32522	
5129	32474	
5130	32422	
5131	32388	
5132	32386	
5133	32410	
5134	32441	
5135	32460	
5136	32458	
5137	32443	
5138	32428	
5139	32426	
5140	32434	
5141	32443	
5142	32441	
5143	32428	
5144	32410	
5145	32399	
5146	32400	
5147	32407	
5148	32409	
5149	32400	
5150	32381	
5151	32365	
5152	32361	
5153	32371	
5154	32385	
5155	32391	
5156	32379	
5157	32354	
5158	32328	
5159	32315	
5160	32322	
5161	32343	
5162	32365	
5163	32379	
5164	32379	
5165	32369	
5166	32352	
5167	32332	
5168	32311	
5169	32295	
5170	32292	
5171	32308	
5172	32343	
5173	32387	
5174	32425	
5175	32445	
5176	32447	
5177	32436	
5178	32425	
5179	32420	
5180	32417	
5181	32408	
5182	32387	
5183	32359	
5184	32334	
5185	32326	
5186	32338	
5187	32360	
5188	32375	
5189	32373	
5190	32352	
5191	32326	
5192	32310	
5193	32312	
5194	32326	
5195	32334	
5196	32324	
5197	32293	
5198	32256	
5199	32234	
5200	32239	
5201	32268	
5202	32303	
5203	32323	
5204	32318	
5205	32295	
5206	32273	
5207	32265	
5208	32278	
5209	32303	
5210	32329	
5211	32348	
5212	32360	
5213	32371	
5214	32384	
5215	32396	
5216	32403	
5217	32402	
5218	32397	
5219	32396	
5220	32407	
5221	32433	
5222	32468	
5223	32504	
5224	32535	
5225	32560	
5226	32582	
5227	32603	
5228	32624	
5229	32641	
5230	32654	
5231	32664	
5232	32676	
5233	32696	
5234	32724	
5235	32751	
5236	32767	
5237	32759	
5238	32726	
5239	32680	
5240	32640	
5241	32622	
5242	32636	
5243	32677	
5244	32730	
5245	32779	
5246	32815	
5247	32838	
5248	32850	
5249	32859	
5250	32865	
5251	32869	
5252	32874	
5253	32882	
5254	32897	
5255	32916	
5256	32932	
5257	32933	
5258	32911	
5259	32869	
5260	32818	
5261	32778	
5262	32760	
5263	32766	
5264	32783	
5265	32794	
5266	32787	
5267	32761	
5268	32727	
5269	32697	
5270	32676	
5271	32660	
5272	32634	
5273	32587	
5274	32514	
5275	32426	
5276	32342	
5277	32283	
5278	32258	
5279	32263	
5280	32282	
5281	32295	
5282	32288	
5283	32257	
5284	32211	
5285	32164	
5286	32130	
5287	32115	
5288	32121	
5289	32140	
5290	32166	
5291	32189	
5292	32204	
5293	32207	
5294	32197	
5295	32179	
5296	32155	
5297	32135	
5298	32123	
5299	32120	
5300	32124	
5301	32124	
5302	32114	
5303	32089	
5304	32052	
5305	32013	
5306	31987	
5307	31982	
5308	31997	
5309	32025	
5310	32051	
5311	32065	
5312	32061	
5313	32042	
5314	32016	
5315	31989	
5316	31966	
5317	31948	
5318	31932	
5319	31918	
5320	31905	
5321	31896	
5322	31892	
5323	31894	
5324	31903	
5325	31920	
5326	31942	
5327	31966	
5328	31984	
5329	31990	
5330	31981	
5331	31959	
5332	31936	
5333	31920	
5334	31919	
5335	31933	
5336	31956	
5337	31980	
5338	31997	
5339	32003	
5340	31998	
5341	31987	
5342	31978	
5343	31976	
5344	31984	
5345	31997	
5346	32010	
5347	32018	
5348	32019	
5349	32016	
5350	32013	
5351	32014	
5352	32015	
5353	32013	
5354	32005	
5355	31994	
5356	31987	
5357	31991	
5358	32014	
5359	32059	
5360	32128	
5361	32224	
5362	32356	
5363	32535	
5364	32766	
5365	33043	
5366	33339	
5367	33609	
5368	33807	
5369	33900	
5370	33879	
5371	33765	
5372	33592	
5373	33391	
5374	33172	
5375	32923	
5376	32628	
5377	32280	
5378	31893	
5379	31495	
5380	31119	
5381	30784	
5382	30489	
5383	30217	
5384	29951	
5385	29676	
5386	29383	
5387	29069	
5388	28730	
5389	28365	
5390	27981	
5391	27593	
5392	27223	
5393	26888	
5394	26600	
5395	26359	
5396	26168	
5397	26030	
5398	25957	
5399	25951	
5400	26002	
5401	26075	
5402	26126	
5403	26125	
5404	26071	
5405	26003	
5406	25973	
5407	26019	
5408	26146	
5409	26327	
5410	26531	
5411	26745	
5412	26981	
5413	27260	
5414	27595	
5415	27972	
5416	28361	
5417	28738	
5418	29100	
5419	29467	
5420	29859	
5421	30273	
5422	30677	
5423	31020	
5424	31271	
5425	31435	
5426	31554	
5427	31674	
5428	31818	
5429	31975	
5430	32111	
5431	32204	
5432	32258	
5433	32299	
5434	32357	
5435	32442	
5436	32541	
5437	32630	
5438	32686	
5439	32704	
5440	32693	
5441	32672	
5442	32661	
5443	32671	
5444	32700	
5445	32736	
5446	32762	
5447	32769	
5448	32762	
5449	32752	
5450	32751	
5451	32762	
5452	32776	
5453	32780	
5454	32768	
5455	32746	
5456	32726	
5457	32717	
5458	32719	
5459	32721	
5460	32715	
5461	32699	
5462	32683	
5463	32680	
5464	32693	
5465	32716	
5466	32735	
5467	32738	
5468	32724	
5469	32702	
5470	32683	
5471	32673	
5472	32670	
5473	32669	
5474	32669	
5475	32672	
5476	32684	
5477	32704	
5478	32723	
5479	32728	
5480	32712	
5481	32678	
5482	32640	
5483	32615	
5484	32611	
5485	32626	
5486	32646	
5487	32659	
5488	32657	
5489	32643	
5490	32624	
5491	32609	
5492	32601	
5493	32598	
5494	32598	
5495	32602	
5496	32612	
5497	32629	
5498	32652	
5499	32677	
5500	32699	
5501	32711	
5502	32713	
5503	32704	
5504	32689	
5505	32671	
5506	32658	
5507	32651	
5508	32653	
5509	32661	
5510	32670	
5511	32673	
5512	32670	
5513	32660	
5514	32651	
5515	32649	
5516	32660	
5517	32682	
5518	32710	
5519	32735	
5520	32749	
5521	32751	
5522	32740	
5523	32721	
5524	32699	
5525	32679	
5526	32666	
5527	32662	
5528	32668	
5529	32679	
5530	32691	
5531	32696	
5532	32690	
5533	32675	
5534	32652	
5535	32630	
5536	32611	
5537	32599	
5538	32594	
5539	32593	
5540	32592	
5541	32589	
5542	32583	
5543	32573	
5544	32566	
5545	32566	
5546	32579	
5547	32606	
5548	32639	
5549	32665	
5550	32675	
5551	32664	
5552	32637	
5553	32610	
5554	32599	
5555	32612	
5556	32644	
5557	32684	
5558	32715	
5559	32726	
5560	32718	
5561	32698	
5562	32675	
5563	32656	
5564	32642	
5565	32631	
5566	32620	
5567	32609	
5568	32597	
5569	32585	
5570	32574	
5571	32568	
5572	32571	
5573	32589	
5574	32621	
5575	32663	
5576	32701	
5577	32724	
5578	32727	
5579	32714	
5580	32698	
5581	32692	
5582	32702	
5583	32725	
5584	32749	
5585	32765	
5586	32766	
5587	32759	
5588	32752	
5589	32753	
5590	32764	
5591	32777	
5592	32784	
5593	32779	
5594	32762	
5595	32744	
5596	32733	
5597	32737	
5598	32755	
5599	32779	
5600	32800	
5601	32809	
5602	32808	
5603	32801	
5604	32795	
5605	32795	
5606	32803	
5607	32817	
5608	32834	
5609	32850	
5610	32861	
5611	32865	
5612	32861	
5613	32850	
5614	32836	
5615	32826	
5616	32825	
5617	32834	
5618	32849	
5619	32864	
5620	32873	
5621	32876	
5622	32881	
5623	32896	
5624	32924	
5625	32959	
5626	32986	
5627	32987	
5628	32958	
5629	32907	
5630	32857	
5631	32831	
5632	32838	
5633	32869	
5634	32899	
5635	32904	
5636	32878	
5637	32832	
5638	32793	
5639	32784	
5640	32809	
5641	32853	
5642	32889	
5643	32899	
5644	32885	
5645	32863	
5646	32853	
5647	32863	
5648	32884	
5649	32896	
5650	32885	
5651	32850	
5652	32807	
5653	32778	
5654	32773	
5655	32787	
5656	32805	
5657	32811	
5658	32800	
5659	32782	
5660	32770	
5661	32773	
5662	32788	
5663	32804	
5664	32812	
5665	32808	
5666	32799	
5667	32792	
5668	32789	
5669	32785	
5670	32772	
5671	32748	
5672	32718	
5673	32693	
5674	32683	
5675	32689	
5676	32699	
5677	32702	
5678	32691	
5679	32669	
5680	32645	
5681	32629	
5682	32619	
5683	32609	
5684	32594	
5685	32575	
5686	32564	
5687	32570	
5688	32595	
5689	32624	
5690	32638	
5691	32621	
5692	32575	
5693	32520	
5694	32481	
5695	32474	
5696	32497	
5697	32529	
5698	32548	
5699	32540	
5700	32511	
5701	32476	
5702	32451	
5703	32443	
5704	32447	
5705	32455	
5706	32461	
5707	32462	
5708	32460	
5709	32455	
5710	32444	
5711	32421	
5712	32388	
5713	32350	
5714	32316	
5715	32293	
5716	32281	
5717	32273	
5718	32261	
5719	32244	
5720	32226	
5721	32214	
5722	32211	
5723	32216	
5724	32224	
5725	32233	
5726	32242	
5727	32256	
5728	32275	
5729	32293	
5730	32302	
5731	32293	
5732	32268	
5733	32240	
5734	32224	
5735	32232	
5736	32260	
5737	32291	
5738	32305	
5739	32291	
5740	32250	
5741	32197	
5742	32152	
5743	32129	
5744	32132	
5745	32155	
5746	32184	
5747	32205	
5748	32209	
5749	32193	
5750	32164	
5751	32137	
5752	32124	
5753	32131	
5754	32153	
5755	32173	
5756	32179	
5757	32166	
5758	32140	
5759	32119	
5760	32118	
5761	32138	
5762	32170	
5763	32195	
5764	32202	
5765	32192	
5766	32177	
5767	32176	
5768	32195	
5769	32227	
5770	32257	
5771	32267	
5772	32254	
5773	32228	
5774	32207	
5775	32202	
5776	32213	
5777	32226	
5778	32227	
5779	32212	
5780	32188	
5781	32167	
5782	32161	
5783	32169	
5784	32181	
5785	32185	
5786	32175	
5787	32156	
5788	32143	
5789	32147	
5790	32172	
5791	32211	
5792	32251	
5793	32277	
5794	32283	
5795	32270	
5796	32245	
5797	32218	
5798	32197	
5799	32183	
5800	32178	
5801	32177	
5802	32179	
5803	32181	
5804	32186	
5805	32193	
5806	32201	
5807	32207	
5808	32203	
5809	32189	
5810	32169	
5811	32158	
5812	32165	
5813	32195	
5814	32239	
5815	32278	
5816	32295	
5817	32284	
5818	32248	
5819	32204	
5820	32167	
5821	32151	
5822	32157	
5823	32179	
5824	32205	
5825	32223	
5826	32224	
5827	32208	
5828	32181	
5829	32155	
5830	32141	
5831	32144	
5832	32162	
5833	32183	
5834	32197	
5835	32197	
5836	32184	
5837	32164	
5838	32146	
5839	32134	
5840	32127	
5841	32121	
5842	32115	
5843	32111	
5844	32113	
5845	32125	
5846	32142	
5847	32157	
5848	32159	
5849	32143	
5850	32115	
5851	32084	
5852	32063	
5853	32055	
5854	32056	
5855	32055	
5856	32044	
5857	32023	
5858	32004	
5859	32003	
5860	32027	
5861	32068	
5862	32109	
5863	32130	
5864	32125	
5865	32105	
5866	32092	
5867	32102	
5868	32137	
5869	32178	
5870	32203	
5871	32193	
5872	32151	
5873	32095	
5874	32048	
5875	32023	
5876	32017	
5877	32012	
5878	31996	
5879	31965	
5880	31931	
5881	31912	
5882	31915	
5883	31934	
5884	31953	
5885	31958	
5886	31947	
5887	31932	
5888	31930	
5889	31950	
5890	31986	
5891	32017	
5892	32022	
5893	31996	
5894	31950	
5895	31906	
5896	31884	
5897	31888	
5898	31908	
5899	31926	
5900	31928	
5901	31911	
5902	31883	
5903	31855	
5904	31835	
5905	31826	
5906	31830	
5907	31843	
5908	31861	
5909	31879	
5910	31892	
5911	31897	
5912	31894	
5913	31888	
5914	31884	
5915	31885	
5916	31886	
5917	31882	
5918	31868	
5919	31846	
5920	31824	
5921	31814	
5922	31821	
5923	31841	
5924	31860	
5925	31869	
5926	31864	
5927	31854	
5928	31849	
5929	31860	
5930	31883	
5931	31910	
5932	31929	
5933	31934	
5934	31928	
5935	31919	
5936	31911	
5937	31902	
5938	31888	
5939	31865	
5940	31836	
5941	31811	
5942	31797	
5943	31797	
5944	31804	
5945	31811	
5946	31815	
5947	31817	
5948	31825	
5949	31838	
5950	31849	
5951	31848	
5952	31831	
5953	31805	
5954	31786	
5955	31786	
5956	31807	
5957	31830	
5958	31832	
5959	31803	
5960	31753	
5961	31710	
5962	31702	
5963	31736	
5964	31794	
5965	31841	
5966	31850	
5967	31817	
5968	31768	
5969	31736	
5970	31743	
5971	31785	
5972	31833	
5973	31856	
5974	31841	
5975	31799	
5976	31756	
5977	31737	
5978	31749	
5979	31776	
5980	31796	
5981	31797	
5982	31779	
5983	31759	
5984	31753	
5985	31763	
5986	31784	
5987	31801	
5988	31810	
5989	31811	
5990	31810	
5991	31807	
5992	31797	
5993	31773	
5994	31740	
5995	31712	
5996	31708	
5997	31731	
5998	31768	
5999	31793	
6000	31788	
6001	31752	
6002	31709	
6003	31690	
6004	31713	
6005	31772	
6006	31837	
6007	31877	
6008	31875	
6009	31840	
6010	31799	
6011	31778	
6012	31789	
6013	31821	
6014	31850	
6015	31857	
6016	31841	
6017	31820	
6018	31815	
6019	31836	
6020	31874	
6021	31907	
6022	31916	
6023	31898	
6024	31868	
6025	31848	
6026	31853	
6027	31884	
6028	31925	
6029	31961	
6030	31985	
6031	32002	
6032	32024	
6033	32060	
6034	32107	
6035	32155	
6036	32192	
6037	32215	
6038	32228	
6039	32239	
6040	32249	
6041	32252	
6042	32243	
6043	32220	
6044	32192	
6045	32174	
6046	32180	
6047	32211	
6048	32256	
6049	32303	
6050	32341	
6051	32371	
6052	32397	
6053	32426	
6054	32455	
6055	32476	
6056	32481	
6057	32471	
6058	32457	
6059	32456	
6060	32476	
6061	32514	
6062	32551	
6063	32568	
6064	32551	
6065	32508	
6066	32456	
6067	32416	
6068	32396	
6069	32390	
6070	32384	
6071	32364	
6072	32328	
6073	32284	
6074	32240	
6075	32202	
6076	32166	
6077	32124	
6078	32072	
6079	32014	
6080	31960	
6081	31916	
6082	31882	
6083	31854	
6084	31825	
6085	31793	
6086	31762	
6087	31738	
6088	31719	
6089	31702	
6090	31682	
6091	31659	
6092	31643	
6093	31646	
6094	31674	
6095	31716	
6096	31753	
6097	31764	
6098	31741	
6099	31696	
6100	31650	
6101	31622	
6102	31616	
6103	31625	
6104	31633	
6105	31630	
6106	31612	
6107	31585	
6108	31557	
6109	31533	
6110	31517	
6111	31509	
6112	31510	
6113	31518	
6114	31527	
6115	31531	
6116	31521	
6117	31494	
6118	31454	
6119	31415	
6120	31392	
6121	31391	
6122	31410	
6123	31433	
6124	31444	
6125	31437	
6126	31419	
6127	31408	
6128	31419	
6129	31451	
6130	31491	
6131	31515	
6132	31509	
6133	31473	
6134	31425	
6135	31386	
6136	31374	
6137	31391	
6138	31424	
6139	31457	
6140	31477	
6141	31482	
6142	31481	
6143	31482	
6144	31490	
6145	31502	
6146	31514	
6147	31523	
6148	31532	
6149	31544	
6150	31557	
6151	31566	
6152	31563	
6153	31544	
6154	31515	
6155	31485	
6156	31465	
6157	31461	
6158	31473	
6159	31491	
6160	31507	
6161	31514	
6162	31512	
6163	31515	
6164	31547	
6165	31639	
6166	31813	
6167	32073	
6168	32397	
6169	32740	
6170	33044	
6171	33264	
6172	33376	
6173	33385	
6174	33315	
6175	33192	
6176	33033	
6177	32842	
6178	32610	
6179	32329	
6180	31996	
6181	31619	
6182	31216	
6183	30805	
6184	30401	
6185	30009	
6186	29632	
6187	29268	
6188	28923	
6189	28604	
6190	28312	
6191	28037	
6192	27755	
6193	27438	
6194	27068	
6195	26652	
6196	26221	
6197	25823	
6198	25501	
6199	25277	
6200	25147	
6201	25087	
6202	25069	
6203	25072	
6204	25086	
6205	25111	
6206	25146	
6207	25186	
6208	25225	
6209	25265	
6210	25319	
6211	25412	
6212	25562	
6213	25770	
6214	26009	
6215	26242	
6216	26456	
6217	26669	
6218	26928	
6219	27272	
6220	27697	
6221	28163	
6222	28616	
6223	29033	
6224	29427	
6225	29825	
6226	30231	
6227	30611	
6228	30913	
6229	31107	
6230	31216	
6231	31299	
6232	31412	
6233	31564	
6234	31717	
6235	31823	
6236	31867	
6237	31884	
6238	31928	
6239	32026	
6240	32153	
6241	32251	
6242	32279	
6243	32246	
6244	32208	
6245	32219	
6246	32290	
6247	32380	
6248	32430	
6249	32412	
6250	32352	
6251	32308	
6252	32322	
6253	32391	
6254	32470	
6255	32508	
6256	32485	
6257	32426	
6258	32377	
6259	32368	
6260	32391	
6261	32417	
6262	32415	
6263	32382	
6264	32342	
6265	32322	
6266	32335	
6267	32366	
6268	32387	
6269	32378	
6270	32340	
6271	32295	
6272	32267	
6273	32266	
6274	32285	
6275	32305	
6276	32314	
6277	32309	
6278	32301	
6279	32299	
6280	32308	
6281	32320	
6282	32329	
6283	32331	
6284	32329	
6285	32327	
6286	32332	
6287	32343	
6288	32355	
6289	32364	
6290	32368	
6291	32365	
6292	32355	
6293	32336	
6294	32308	
6295	32273	
6296	32241	
6297	32221	
6298	32221	
6299	32240	
6300	32270	
6301	32296	
6302	32310	
6303	32310	
6304	32303	
6305	32301	
6306	32308	
6307	32323	
6308	32340	
6309	32350	
6310	32347	
6311	32332	
6312	32310	
6313	32286	
6314	32266	
6315	32254	
6316	32252	
6317	32259	
6318	32271	
6319	32282	
6320	32287	
6321	32285	
6322	32279	
6323	32274	
6324	32271	
6325	32272	
6326	32274	
6327	32274	
6328	32272	
6329	32272	
6330	32277	
6331	32288	
6332	32306	
6333	32325	
6334	32339	
6335	32344	
6336	32335	
6337	32315	
6338	32290	
6339	32268	
6340	32259	
6341	32267	
6342	32291	
6343	32328	
6344	32367	
6345	32397	
6346	32408	
6347	32397	
6348	32367	
6349	32328	
6350	32296	
6351	32281	
6352	32286	
6353	32303	
6354	32321	
6355	32330	
6356	32325	
6357	32313	
6358	32305	
6359	32308	
6360	32320	
6361	32332	
6362	32332	
6363	32315	
6364	32286	
6365	32256	
6366	32238	
6367	32235	
6368	32243	
6369	32250	
6370	32252	
6371	32251	
6372	32257	
6373	32281	
6374	32325	
6375	32377	
6376	32424	
6377	32450	
6378	32451	
6379	32433	
6380	32406	
6381	32383	
6382	32373	
6383	32379	
6384	32400	
6385	32430	
6386	32462	
6387	32484	
6388	32488	
6389	32469	
6390	32433	
6391	32394	
6392	32367	
6393	32364	
6394	32382	
6395	32407	
6396	32423	
6397	32419	
6398	32398	
6399	32373	
6400	32362	
6401	32374	
6402	32405	
6403	32445	
6404	32481	
6405	32506	
6406	32519	
6407	32524	
6408	32523	
6409	32518	
6410	32509	
6411	32501	
6412	32502	
6413	32514	
6414	32534	
6415	32553	
6416	32562	
6417	32560	
6418	32556	
6419	32565	
6420	32591	
6421	32625	
6422	32646	
6423	32635	
6424	32594	
6425	32545	
6426	32521	
6427	32542	
6428	32600	
6429	32662	
6430	32689	
6431	32665	
6432	32601	
6433	32536	
6434	32504	
6435	32518	
6436	32563	
6437	32606	
6438	32623	
6439	32611	
6440	32588	
6441	32577	
6442	32587	
6443	32612	
6444	32635	
6445	32646	
6446	32648	
6447	32650	
6448	32661	
6449	32676	
6450	32683	
6451	32668	
6452	32633	
6453	32591	
6454	32561	
6455	32555	
6456	32572	
6457	32597	
6458	32615	
6459	32622	
6460	32621	
6461	32624	
6462	32636	
6463	32651	
6464	32658	
6465	32649	
6466	32623	
6467	32591	
6468	32565	
6469	32553	
6470	32557	
6471	32571	
6472	32587	
6473	32599	
6474	32600	
6475	32586	
6476	32559	
6477	32523	
6478	32491	
6479	32473	
6480	32478	
6481	32499	
6482	32517	
6483	32514	
6484	32482	
6485	32430	
6486	32383	
6487	32363	
6488	32379	
6489	32420	
6490	32462	
6491	32482	
6492	32473	
6493	32442	
6494	32404	
6495	32367	
6496	32332	
6497	32291	
6498	32244	
6499	32200	
6500	32174	
6501	32176	
6502	32201	
6503	32231	
6504	32243	
6505	32227	
6506	32191	
6507	32158	
6508	32147	
6509	32159	
6510	32180	
6511	32188	
6512	32169	
6513	32129	
6514	32087	
6515	32066	
6516	32075	
6517	32101	
6518	32123	
6519	32123	
6520	32099	
6521	32063	
6522	32031	
6523	32014	
6524	32008	
6525	32001	
6526	31985	
6527	31960	
6528	31936	
6529	31925	
6530	31931	
6531	31945	
6532	31950	
6533	31930	
6534	31884	
6535	31828	
6536	31785	
6537	31773	
6538	31795	
6539	31837	
6540	31874	
6541	31887	
6542	31870	
6543	31834	
6544	31801	
6545	31788	
6546	31802	
6547	31834	
6548	31869	
6549	31889	
6550	31886	
6551	31861	
6552	31822	
6553	31785	
6554	31763	
6555	31764	
6556	31790	
6557	31831	
6558	31873	
6559	31899	
6560	31899	
6561	31874	
6562	31837	
6563	31807	
6564	31804	
6565	31837	
6566	31899	
6567	31967	
6568	32011	
6569	32011	
6570	31967	
6571	31897	
6572	31829	
6573	31785	
6574	31769	
6575	31772	
6576	31777	
6577	31777	
6578	31777	
6579	31792	
6580	31832	
6581	31892	
6582	31952	
6583	31991	
6584	31996	
6585	31974	
6586	31949	
6587	31941	
6588	31957	
6589	31987	
6590	32007	
6591	32001	
6592	31969	
6593	31924	
6594	31887	
6595	31867	
6596	31861	
6597	31854	
6598	31836	
6599	31808	
6600	31785	
6601	31783	
6602	31810	
6603	31854	
6604	31896	
6605	31916	
6606	31907	
6607	31881	
6608	31861	
6609	31861	
6610	31885	
6611	31921	
6612	31950	
6613	31962	
6614	31955	
6615	31942	
6616	31934	
6617	31934	
6618	31941	
6619	31948	
6620	31947	
6621	31941	
6622	31933	
6623	31926	
6624	31921	
6625	31917	
6626	31912	
6627	31908	
6628	31909	
6629	31916	
6630	31926	
6631	31934	
6632	31934	
6633	31924	
6634	31906	
6635	31887	
6636	31873	
6637	31866	
6638	31867	
6639	31871	
6640	31872	
6641	31864	
6642	31847	
6643	31827	
6644	31814	
6645	31817	
6646	31842	
6647	31880	
6648	31917	
6649	31938	
6650	31935	
6651	31914	
6652	31888	
6653	31875	
6654	31879	
6655	31896	
6656	31913	
6657	31915	
6658	31897	
6659	31861	
6660	31820	
6661	31789	
6662	31778	
6663	31788	
6664	31814	
6665	31847	
6666	31876	
6667	31894	
6668	31900	
6669	31897	
6670	31890	
6671	31885	
6672	31883	
6673	31882	
6674	31875	
6675	31859	
6676	31836	
6677	31812	
6678	31793	
6679	31783	
6680	31779	
6681	31778	
6682	31777	
6683	31777	
6684	31780	
6685	31787	
6686	31793	
6687	31790	
6688	31771	
6689	31738	
6690	31705	
6691	31687	
6692	31697	
6693	31731	
6694	31772	
6695	31798	
6696	31797	
6697	31774	
6698	31745	
6699	31725	
6700	31720	
6701	31724	
6702	31723	
6703	31710	
6704	31688	
6705	31670	
6706	31669	
6707	31689	
6708	31726	
6709	31767	
6710	31800	
6711	31816	
6712	31816	
6713	31804	
6714	31789	
6715	31775	
6716	31763	
6717	31750	
6718	31729	
6719	31695	
6720	31650	
6721	31604	
6722	31568	
6723	31552	
6724	31556	
6725	31576	
6726	31601	
6727	31622	
6728	31633	
6729	31632	
6730	31623	
6731	31617	
6732	31622	
6733	31645	
6734	31681	
6735	31719	
6736	31739	
6737	31730	
6738	31693	
6739	31642	
6740	31601	
6741	31585	
6742	31599	
6743	31634	
6744	31676	
6745	31713	
6746	31738	
6747	31748	
6748	31743	
6749	31727	
6750	31706	
6751	31689	
6752	31683	
6753	31690	
6754	31704	
6755	31716	
6756	31715	
6757	31700	
6758	31677	
6759	31658	
6760	31655	
6761	31670	
6762	31695	
6763	31715	
6764	31720	
6765	31707	
6766	31682	
6767	31656	
6768	31635	
6769	31620	
6770	31608	
6771	31597	
6772	31587	
6773	31580	
6774	31577	
6775	31574	
6776	31569	
6777	31561	
6778	31553	
6779	31554	
6780	31568	
6781	31590	
6782	31609	
6783	31615	
6784	31605	
6785	31586	
6786	31575	
6787	31584	
6788	31611	
6789	31641	
6790	31656	
6791	31643	
6792	31606	
6793	31560	
6794	31527	
6795	31522	
6796	31540	
6797	31567	
6798	31582	
6799	31578	
6800	31561	
6801	31550	
6802	31561	
6803	31594	
6804	31633	
6805	31654	
6806	31642	
6807	31599	
6808	31542	
6809	31494	
6810	31470	
6811	31472	
6812	31488	
6813	31507	
6814	31525	
6815	31540	
6816	31556	
6817	31569	
6818	31574	
6819	31569	
6820	31556	
6821	31544	
6822	31542	
6823	31551	
6824	31565	
6825	31573	
6826	31571	
6827	31563	
6828	31563	
6829	31580	
6830	31614	
6831	31655	
6832	31684	
6833	31688	
6834	31666	
6835	31632	
6836	31602	
6837	31593	
6838	31607	
6839	31639	
6840	31676	
6841	31710	
6842	31735	
6843	31757	
6844	31783	
6845	31816	
6846	31860	
6847	31910	
6848	31960	
6849	32005	
6850	32040	
6851	32067	
6852	32086	
6853	32097	
6854	32099	
6855	32091	
6856	32074	
6857	32054	
6858	32037	
6859	32026	
6860	32025	
6861	32032	
6862	32048	
6863	32074	
6864	32110	
6865	32155	
6866	32204	
6867	32247	
6868	32276	
6869	32288	
6870	32287	
6871	32284	
6872	32291	
6873	32310	
6874	32336	
6875	32358	
6876	32362	
6877	32345	
6878	32313	
6879	32277	
6880	32251	
6881	32244	
6882	32255	
6883	32276	
6884	32291	
6885	32284	
6886	32249	
6887	32187	
6888	32115	
6889	32051	
6890	32008	
6891	31983	
6892	31961	
6893	31924	
6894	31861	
6895	31775	
6896	31687	
6897	31618	
6898	31583	
6899	31579	
6900	31590	
6901	31595	
6902	31582	
6903	31550	
6904	31507	
6905	31469	
6906	31449	
6907	31455	
6908	31484	
6909	31523	
6910	31553	
6911	31555	
6912	31521	
6913	31461	
6914	31402	
6915	31372	
6916	31381	
6917	31419	
6918	31452	
6919	31450	
6920	31401	
6921	31321	
6922	31249	
6923	31217	
6924	31236	
6925	31287	
6926	31331	
6927	31340	
6928	31310	
6929	31259	
6930	31218	
6931	31204	
6932	31214	
6933	31228	
6934	31227	
6935	31205	
6936	31175	
6937	31156	
6938	31159	
6939	31183	
6940	31214	
6941	31238	
6942	31250	
6943	31255	
6944	31261	
6945	31271	
6946	31282	
6947	31284	
6948	31274	
6949	31254	
6950	31239	
6951	31241	
6952	31265	
6953	31299	
6954	31323	
6955	31321	
6956	31292	
6957	31250	
6958	31222	
6959	31222	
6960	31249	
6961	31286	
6962	31315	
6963	31328	
6964	31333	
6965	31342	
6966	31361	
6967	31385	
6968	31398	
6969	31391	
6970	31365	
6971	31333	
6972	31313	
6973	31310	
6974	31321	
6975	31336	
6976	31351	
6977	31377	
6978	31434	
6979	31543	
6980	31715	
6981	31945	
6982	32218	
6983	32512	
6984	32800	
6985	33049	
6986	33223	
6987	33294	
6988	33253	
6989	33112	
6990	32899	
6991	32645	
6992	32371	
6993	32078	
6994	31759	
6995	31408	
6996	31029	
6997	30634	
6998	30238	
6999	29849	
7000	29470	
7001	29102	
7002	28745	
7003	28404	
7004	28075	
7005	27751	
7006	27413	
7007	27046	
7008	26644	
7009	26219	
7010	25800	
7011	25420	
7012	25110	
7013	24888	
7014	24759	
7015	24715	
7016	24732	
7017	24783	
7018	24834	
7019	24859	
7020	24849	
7021	24822	
7022	24812	
7023	24861	
7024	24991	
7025	25189	
7026	25411	
7027	25612	
7028	25775	
7029	25925	
7030	26115	
7031	26390	
7032	26757	
7033	27184	
7034	27630	
7035	28070	
7036	28505	
7037	28945	
7038	29383	
7039	29791	
7040	30135	
7041	30400	
7042	30602	
7043	30772	
7044	30938	
7045	31108	
7046	31272	
7047	31414	
7048	31529	
7049	31625	
7050	31716	
7051	31813	
7052	31915	
7053	32011	
7054	32086	
7055	32129	
7056	32142	
7057	32139	
7058	32137	
7059	32148	
7060	32173	
7061	32206	
7062	32236	
7063	32260	
7064	32273	
7065	32276	
7066	32271	
7067	32258	
7068	32243	
7069	32232	
7070	32229	
7071	32233	
7072	32234	
7073	32220	
7074	32187	
7075	32141	
7076	32100	
7077	32080	
7078	32089	
7079	32122	
7080	32164	
7081	32197	
7082	32213	
7083	32213	
7084	32206	
7085	32200	
7086	32199	
7087	32199	
7088	32197	
7089	32188	
7090	32174	
7091	32160	
7092	32153	
7093	32154	
7094	32163	
7095	32172	
7096	32174	
7097	32164	
7098	32145	
7099	32127	
7100	32124	
7101	32146	
7102	32194	
7103	32254	
7104	32307	
7105	32332	
7106	32323	
7107	32287	
7108	32240	
7109	32201	
7110	32180	
7111	32173	
7112	32170	
7113	32162	
7114	32147	
7115	32128	
7116	32114	
7117	32112	
7118	32120	
7119	32135	
7120	32151	
7121	32162	
7122	32168	
7123	32171	
7124	32176	
7125	32184	
7126	32195	
7127	32206	
7128	32209	
7129	32202	
7130	32182	
7131	32156	
7132	32134	
7133	32122	
7134	32120	
7135	32121	
7136	32112	
7137	32088	
7138	32055	
7139	32027	
7140	32017	
7141	32030	
7142	32059	
7143	32088	
7144	32103	
7145	32105	
7146	32102	
7147	32109	
7148	32131	
7149	32161	
7150	32185	
7151	32190	
7152	32179	
7153	32162	
7154	32154	
7155	32160	
7156	32169	
7157	32164	
7158	32137	
7159	32094	
7160	32057	
7161	32047	
7162	32073	
7163	32123	
7164	32173	
7165	32200	
7166	32197	
7167	32177	
7168	32161	
7169	32165	
7170	32186	
7171	32207	
7172	32209	
7173	32185	
7174	32143	
7175	32103	
7176	32086	
7177	32096	
7178	32128	
7179	32164	
7180	32192	
7181	32206	
7182	32209	
7183	32207	
7184	32204	
7185	32203	
7186	32203	
7187	32205	
7188	32207	
7189	32208	
7190	32208	
7191	32205	
7192	32199	
7193	32195	
7194	32193	
7195	32196	
7196	32199	
7197	32198	
7198	32190	
7199	32175	
7200	32157	
7201	32146	
7202	32148	
7203	32169	
7204	32212	
7205	32269	
7206	32330	
7207	32380	
7208	32406	
7209	32402	
7210	32372	
7211	32332	
7212	32302	
7213	32296	
7214	32319	
7215	32358	
7216	32391	
7217	32400	
7218	32383	
7219	32353	
7220	32333	
7221	32343	
7222	32385	
7223	32441	
7224	32483	
7225	32492	
7226	32463	
7227	32414	
7228	32373	
7229	32360	
7230	32377	
7231	32409	
7232	32435	
7233	32441	
7234	32427	
7235	32404	
7236	32385	
7237	32376	
7238	32372	
7239	32367	
7240	32361	
7241	32362	
7242	32377	
7243	32410	
7244	32450	
7245	32479	
7246	32482	
7247	32458	
7248	32420	
7249	32391	
7250	32382	
7251	32391	
7252	32403	
7253	32403	
7254	32392	
7255	32383	
7256	32396	
7257	32441	
7258	32509	
7259	32572	
7260	32603	
7261	32588	
7262	32539	
7263	32485	
7264	32456	
7265	32468	
7266	32513	
7267	32565	
7268	32597	
7269	32593	
7270	32558	
7271	32512	
7272	32478	
7273	32468	
7274	32478	
7275	32492	
7276	32494	
7277	32473	
7278	32434	
7279	32389	
7280	32354	
7281	32339	
7282	32344	
7283	32363	
7284	32385	
7285	32403	
7286	32410	
7287	32403	
7288	32382	
7289	32350	
7290	32314	
7291	32281	
7292	32258	
7293	32251	
7294	32258	
7295	32275	
7296	32295	
7297	32312	
7298	32321	
7299	32322	
7300	32315	
7301	32304	
7302	32289	
7303	32271	
7304	32251	
7305	32231	
7306	32213	
7307	32198	
7308	32186	
7309	32172	
7310	32154	
7311	32128	
7312	32094	
7313	32057	
7314	32020	
7315	31985	
7316	31955	
7317	31927	
7318	31900	
7319	31874	
7320	31851	
7321	31834	
7322	31828	
7323	31829	
7324	31833	
7325	31830	
7326	31815	
7327	31789	
7328	31758	
7329	31733	
7330	31722	
7331	31722	
7332	31723	
7333	31714	
7334	31691	
7335	31656	
7336	31619	
7337	31587	
7338	31564	
7339	31551	
7340	31544	
7341	31542	
7342	31544	
7343	31547	
7344	31549	
7345	31550	
7346	31548	
7347	31543	
7348	31536	
7349	31526	
7350	31514	
7351	31500	
7352	31488	
7353	31477	
7354	31470	
7355	31468	
7356	31469	
7357	31469	
7358	31465	
7359	31451	
7360	31430	
7361	31406	
7362	31387	
7363	31380	
7364	31389	
7365	31412	
7366	31441	
7367	31469	
7368	31490	
7369	31500	
7370	31498	
7371	31482	
7372	31457	
7373	31428	
7374	31404	
7375	31394	
7376	31405	
7377	31434	
7378	31471	
7379	31504	
7380	31520	
7381	31514	
7382	31492	
7383	31461	
7384	31432	
7385	31410	
7386	31400	
7387	31403	
7388	31417	
7389	31436	
7390	31451	
7391	31458	
7392	31456	
7393	31454	
7394	31462	
7395	31482	
7396	31506	
7397	31520	
7398	31512	
7399	31483	
7400	31448	
7401	31429	
7402	31440	
7403	31479	
7404	31531	
7405	31572	
7406	31586	
7407	31567	
7408	31526	
7409	31481	
7410	31448	
7411	31435	
7412	31443	
7413	31464	
7414	31489	
7415	31506	
7416	31512	
7417	31509	
7418	31504	
7419	31506	
7420	31521	
7421	31546	
7422	31572	
7423	31590	
7424	31591	
7425	31574	
7426	31545	
7427	31513	
7428	31485	
7429	31468	
7430	31465	
7431	31479	
7432	31507	
7433	31543	
7434	31572	
7435	31584	
7436	31569	
7437	31535	
7438	31495	
7439	31465	
7440	31453	
7441	31457	
7442	31465	
7443	31468	
7444	31467	
7445	31469	
7446	31480	
7447	31503	
7448	31528	
7449	31544	
7450	31544	
7451	31532	
7452	31516	
7453	31502	
7454	31491	
7455	31476	
7456	31451	
7457	31419	
7458	31390	
7459	31375	
7460	31379	
7461	31397	
7462	31416	
7463	31426	
7464	31427	
7465	31427	
7466	31436	
7467	31456	
7468	31479	
7469	31488	
7470	31472	
7471	31432	
7472	31385	
7473	31352	
7474	31345	
7475	31362	
7476	31385	
7477	31397	
7478	31390	
7479	31373	
7480	31361	
7481	31367	
7482	31387	
7483	31410	
7484	31422	
7485	31416	
7486	31402	
7487	31393	
7488	31398	
7489	31413	
7490	31421	
7491	31409	
7492	31376	
7493	31334	
7494	31300	
7495	31284	
7496	31287	
7497	31302	
7498	31320	
7499	31339	
7500	31358	
7501	31378	
7502	31393	
7503	31397	
7504	31383	
7505	31354	
7506	31318	
7507	31284	
7508	31262	
7509	31254	
7510	31258	
7511	31264	
7512	31270	
7513	31271	
7514	31270	
7515	31267	
7516	31259	
7517	31244	
7518	31220	
7519	31193	
7520	31176	
7521	31175	
7522	31190	
7523	31211	
7524	31223	
7525	31221	
7526	31208	
7527	31199	
7528	31200	
7529	31210	
7530	31216	
7531	31209	
7532	31192	
7533	31178	
7534	31178	
7535	31196	
7536	31221	
7537	31236	
7538	31229	
7539	31203	
7540	31168	
7541	31139	
7542	31123	
7543	31125	
7544	31139	
7545	31163	
7546	31191	
7547	31219	
7548	31239	
7549	31245	
7550	31232	
7551	31200	
7552	31160	
7553	31129	
7554	31121	
7555	31142	
7556	31179	
7557	31208	
7558	31208	
7559	31171	
7560	31109	
7561	31053	
7562	31030	
7563	31050	
7564	31098	
7565	31146	
7566	31170	
7567	31163	
7568	31140	
7569	31121	
7570	31116	
7571	31121	
7572	31123	
7573	31109	
7574	31080	
7575	31048	
7576	31029	
7577	31032	
7578	31057	
7579	31091	
7580	31124	
7581	31145	
7582	31150	
7583	31142	
7584	31123	
7585	31099	
7586	31078	
7587	31064	
7588	31062	
7589	31070	
7590	31083	
7591	31093	
7592	31094	
7593	31083	
7594	31061	
7595	31037	
7596	31021	
7597	31019	
7598	31030	
7599	31046	
7600	31056	
7601	31055	
7602	31050	
7603	31052	
7604	31069	
7605	31096	
7606	31120	
7607	31128	
7608	31118	
7609	31103	
7610	31100	
7611	31116	
7612	31143	
7613	31163	
7614	31164	
7615	31142	
7616	31104	
7617	31061	
7618	31015	
7619	30966	
7620	30923	
7621	30905	
7622	30940	
7623	31041	
7624	31188	
7625	31331	
7626	31412	
7627	31399	
7628	31305	
7629	31183	
7630	31093	
7631	31073	
7632	31114	
7633	31174	
7634	31211	
7635	31203	
7636	31166	
7637	31131	
7638	31124	
7639	31152	
7640	31198	
7641	31240	
7642	31264	
7643	31272	
7644	31277	
7645	31289	
7646	31309	
7647	31330	
7648	31342	
7649	31342	
7650	31338	
7651	31346	
7652	31378	
7653	31432	
7654	31497	
7655	31555	
7656	31594	
7657	31616	
7658	31635	
7659	31662	
7660	31703	
7661	31744	
7662	31766	
7663	31750	
7664	31698	
7665	31628	
7666	31572	
7667	31553	
7668	31577	
7669	31628	
7670	31681	
7671	31721	
7672	31746	
7673	31766	
7674	31788	
7675	31806	
7676	31805	
7677	31773	
7678	31714	
7679	31655	
7680	31627	
7681	31645	
7682	31700	
7683	31759	
7684	31789	
7685	31778	
7686	31739	
7687	31703	
7688	31691	
7689	31706	
7690	31728	
7691	31729	
7692	31700	
7693	31648	
7694	31597	
7695	31563	
7696	31544	
7697	31523	
7698	31477	
7699	31401	
7700	31311	
7701	31238	
7702	31205	
7703	31215	
7704	31249	
7705	31281	
7706	31288	
7707	31267	
7708	31229	
7709	31186	
7710	31144	
7711	31103	
7712	31065	
7713	31031	
7714	31010	
7715	31007	
7716	31019	
7717	31032	
7718	31035	
7719	31021	
7720	30997	
7721	30977	
7722	30974	
7723	30994	
7724	31025	
7725	31050	
7726	31052	
7727	31026	
7728	30982	
7729	30936	
7730	30903	
7731	30886	
7732	30874	
7733	30859	
7734	30836	
7735	30811	
7736	30797	
7737	30801	
7738	30823	
7739	30853	
7740	30882	
7741	30910	
7742	30938	
7743	30968	
7744	30993	
7745	31001	
7746	30984	
7747	30946	
7748	30905	
7749	30881	
7750	30884	
7751	30908	
7752	30933	
7753	30942	
7754	30931	
7755	30912	
7756	30902	
7757	30909	
7758	30927	
7759	30941	
7760	30945	
7761	30944	
7762	30951	
7763	30974	
7764	31007	
7765	31031	
7766	31031	
7767	31002	
7768	30961	
7769	30930	
7770	30925	
7771	30948	
7772	30988	
7773	31029	
7774	31059	
7775	31077	
7776	31085	
7777	31091	
7778	31098	
7779	31108	
7780	31118	
7781	31133	
7782	31163	
7783	31229	
7784	31356	
7785	31557	
7786	31827	
7787	32139	
7788	32448	
7789	32713	
7790	32905	
7791	33016	
7792	33055	
7793	33033	
7794	32963	
7795	32843	
7796	32668	
7797	32429	
7798	32130	
7799	31785	
7800	31422	
7801	31071	
7802	30755	
7803	30476	
7804	30222	
7805	29970	
7806	29698	
7807	29395	
7808	29058	
7809	28690	
7810	28300	
7811	27898	
7812	27498	
7813	27114	
7814	26762	
7815	26453	
7816	26190	
7817	25974	
7818	25798	
7819	25662	
7820	25568	
7821	25517	
7822	25505	
7823	25511	
7824	25500	
7825	25443	
7826	25329	
7827	25175	
7828	25024	
7829	24928	
7830	24924	
7831	25027	
7832	25229	
7833	25509	
7834	25842	
7835	26207	
7836	26591	
7837	26984	
7838	27381	
7839	27780	
7840	28185	
7841	28606	
7842	29049	
7843	29502	
7844	29927	
7845	30273	
7846	30506	
7847	30633	
7848	30704	
7849	30785	
7850	30914	
7851	31078	
7852	31231	
7853	31329	
7854	31367	
7855	31380	
7856	31420	
7857	31512	
7858	31643	
7859	31774	
7860	31869	
7861	31916	
7862	31929	
7863	31932	
7864	31937	
7865	31947	
7866	31957	
7867	31964	
7868	31967	
7869	31964	
7870	31948	
7871	31919	
7872	31887	
7873	31872	
7874	31890	
7875	31937	
7876	31990	
7877	32019	
7878	32007	
7879	31968	
7880	31928	
7881	31912	
7882	31920	
7883	31929	
7884	31918	
7885	31879	
7886	31830	
7887	31798	
7888	31797	
7889	31822	
7890	31852	
7891	31871	
7892	31876	
7893	31877	
7894	31883	
7895	31894	
7896	31897	
7897	31881	
7898	31847	
7899	31808	
7900	31785	
7901	31786	
7902	31804	
7903	31824	
7904	31834	
7905	31835	
7906	31837	
7907	31850	
7908	31872	
7909	31891	
7910	31895	
7911	31883	
7912	31870	
7913	31869	
7914	31887	
7915	31910	
7916	31917	
7917	31890	
7918	31835	
7919	31777	
7920	31745	
7921	31756	
7922	31802	
7923	31860	
7924	31907	
7925	31933	
7926	31946	
7927	31956	
7928	31963	
7929	31954	
7930	31913	
7931	31842	
7932	31762	
7933	31710	
7934	31709	
7935	31757	
7936	31824	
7937	31872	
7938	31880	
7939	31855	
7940	31825	
7941	31819	
7942	31844	
7943	31889	
7944	31930	
7945	31950	
7946	31950	
7947	31941	
7948	31933	
7949	31927	
7950	31917	
7951	31894	
7952	31863	
7953	31837	
7954	31831	
7955	31851	
7956	31889	
7957	31925	
7958	31937	
7959	31917	
7960	31875	
7961	31830	
7962	31805	
7963	31812	
7964	31846	
7965	31888	
7966	31919	
7967	31932	
7968	31930	
7969	31924	
7970	31923	
7971	31924	
7972	31921	
7973	31907	
7974	31879	
7975	31848	
7976	31824	
7977	31819	
7978	31834	
7979	31863	
7980	31896	
7981	31926	
7982	31952	
7983	31976	
7984	32000	
7985	32020	
7986	32027	
7987	32011	
7988	31970	
7989	31909	
7990	31846	
7991	31798	
7992	31775	
7993	31777	
7994	31792	
7995	31808	
7996	31818	
7997	31823	
7998	31833	
7999	31851	
8000	31877	
8001	31903	
8002	31921	
8003	31930	
8004	31939	
8005	31956	
8006	31983	
8007	32011	
8008	32026	
8009	32014	
8010	31978	
8011	31933	
8012	31900	
8013	31892	
8014	31909	
8015	31932	
8016	31944	
8017	31938	
8018	31919	
8019	31907	
8020	31915	
8021	31947	
8022	31990	
8023	32027	
8024	32042	
8025	32034	
8026	32015	
8027	32004	
8028	32009	
8029	32031	
8030	32055	
8031	32070	
8032	32068	
8033	32056	
8034	32044	
8035	32037	
8036	32035	
8037	32029	
8038	32012	
8039	31986	
8040	31962	
8041	31953	
8042	31967	
8043	31999	
8044	32035	
8045	32062	
8046	32075	
8047	32078	
8048	32081	
8049	32088	
8050	32096	
8051	32097	
8052	32086	
8053	32070	
8054	32063	
8055	32076	
8056	32107	
8057	32140	
8058	32154	
8059	32138	
8060	32099	
8061	32062	
8062	32049	
8063	32069	
8064	32111	
8065	32151	
8066	32172	
8067	32169	
8068	32155	
8069	32146	
8070	32153	
8071	32169	
8072	32179	
8073	32171	
8074	32145	
8075	32112	
8076	32088	
8077	32085	
8078	32101	
8079	32126	
8080	32147	
8081	32157	
8082	32154	
8083	32143	
8084	32131	
8085	32121	
8086	32118	
8087	32124	
8088	32140	
8089	32160	
8090	32177	
8091	32179	
8092	32162	
8093	32131	
8094	32097	
8095	32072	
8096	32061	
8097	32063	
8098	32071	
8099	32083	
8100	32101	
8101	32130	
8102	32168	
8103	32200	
8104	32206	
8105	32175	
8106	32111	
8107	32041	
8108	31995	
8109	31993	
8110	32030	
8111	32083	
8112	32124	
8113	32135	
8114	32120	
8115	32092	
8116	32067	
8117	32050	
8118	32037	
8119	32022	
8120	32006	
8121	31992	
8122	31984	
8123	31980	
8124	31975	
8125	31962	
8126	31947	
8127	31938	
8128	31946	
8129	31968	
8130	31991	
8131	31990	
8132	31953	
8133	31884	
8134	31808	
8135	31757	
8136	31751	
8137	31786	
8138	31839	
8139	31878	
8140	31886	
8141	31864	
8142	31832	
8143	31812	
8144	31815	
8145	31837	
8146	31861	
8147	31873	
8148	31869	
8149	31854	
8150	31841	
8151	31835	
8152	31836	
8153	31838	
8154	31835	
8155	31830	
8156	31824	
8157	31817	
8158	31801	
8159	31768	
8160	31717	
8161	31660	
8162	31619	
8163	31620	
8164	31676	
8165	31777	
8166	31893	
8167	31986	
8168	32025	
8169	32004	
8170	31937	
8171	31859	
8172	31802	
8173	31785	
8174	31802	
8175	31831	
8176	31846	
8177	31829	
8178	31785	
8179	31729	
8180	31686	
8181	31669	
8182	31679	
8183	31707	
8184	31741	
8185	31778	
8186	31816	
8187	31858	
8188	31897	
8189	31926	
8190	31934	
8191	31921	
8192	31895	
8193	31866	
8194	31843	
8195	31826	
8196	31807	
8197	31783	
8198	31760	
8199	31753	
8200	31778	
8201	31836	
8202	31909	
8203	31966	
8204	31982	
8205	31953	
8206	31898	
8207	31852	
8208	31840	
8209	31867	
8210	31919	
8211	31971	
8212	32004	
8213	32016	
8214	32016	
8215	32016	
8216	32018	
8217	32013	
8218	31991	
8219	31953	
8220	31916	
8221	31899	
8222	31912	
8223	31948	
8224	31982	
8225	31996	
8226	31986	
8227	31968	
8228	31963	
8229	31982	
8230	32015	
8231	32040	
8232	32037	
8233	32006	
8234	31964	
8235	31932	
8236	31928	
8237	31949	
8238	31983	
8239	32014	
8240	32032	
8241	32037	
8242	32031	
8243	32017	
8244	31997	
8245	31977	
8246	31968	
8247	31982	
8248	32018	
8249	32062	
8250	32087	
8251	32070	
8252	32008	
8253	31921	
8254	31847	
8255	31818	
8256	31842	
8257	31904	
8258	31972	
8259	32019	
8260	32036	
8261	32031	
8262	32020	
8263	32012	
8264	32009	
8265	32004	
8266	31992	
8267	31974	
8268	31957	
8269	31946	
8270	31943	
8271	31945	
8272	31950	
8273	31959	
8274	31975	
8275	31999	
8276	32027	
8277	32049	
8278	32053	
8279	32034	
8280	32001	
8281	31967	
8282	31947	
8283	31946	
8284	31959	
8285	31970	
8286	31969	
8287	31957	
8288	31943	
8289	31942	
8290	31960	
8291	31990	
8292	32018	
8293	32027	
8294	32007	
8295	31965	
8296	31916	
8297	31882	
8298	31876	
8299	31901	
8300	31943	
8301	31982	
8302	31997	
8303	31978	
8304	31931	
8305	31876	
8306	31841	
8307	31843	
8308	31882	
8309	31938	
8310	31979	
8311	31982	
8312	31945	
8313	31889	
8314	31846	
8315	31838	
8316	31863	
8317	31895	
8318	31901	
8319	31865	
8320	31798	
8321	31734	
8322	31708	
8323	31735	
8324	31801	
8325	31871	
8326	31917	
8327	31927	
8328	31910	
8329	31884	
8330	31862	
8331	31844	
8332	31825	
8333	31800	
8334	31774	
8335	31759	
8336	31761	
8337	31775	
8338	31785	
8339	31779	
8340	31754	
8341	31724	
8342	31708	
8343	31721	
8344	31759	
8345	31807	
8346	31842	
8347	31850	
8348	31831	
8349	31796	
8350	31760	
8351	31732	
8352	31719	
8353	31718	
8354	31728	
8355	31742	
8356	31754	
8357	31759	
8358	31753	
8359	31739	
8360	31723	
8361	31713	
8362	31714	
8363	31723	
8364	31735	
8365	31743	
8366	31746	
8367	31747	
8368	31751	
8369	31760	
8370	31772	
8371	31784	
8372	31793	
8373	31798	
8374	31800	
8375	31795	
8376	31774	
8377	31736	
8378	31683	
8379	31632	
8380	31602	
8381	31606	
8382	31642	
8383	31693	
8384	31735	
8385	31753	
8386	31744	
8387	31719	
8388	31690	
8389	31669	
8390	31657	
8391	31654	
8392	31661	
8393	31684	
8394	31719	
8395	31757	
8396	31780	
8397	31772	
8398	31735	
8399	31688	
8400	31660	
8401	31671	
8402	31717	
8403	31770	
8404	31800	
8405	31794	
8406	31764	
8407	31739	
8408	31745	
8409	31784	
8410	31832	
8411	31856	
8412	31838	
8413	31784	
8414	31722	
8415	31684	
8416	31683	
8417	31708	
8418	31736	
8419	31747	
8420	31736	
8421	31718	
8422	31712	
8423	31728	
8424	31763	
8425	31800	
8426	31823	
8427	31824	
8428	31809	
8429	31792	
8430	31784	
8431	31792	
8432	31817	
8433	31852	
8434	31889	
8435	31921	
8436	31944	
8437	31954	
8438	31951	
8439	31941	
8440	31931	
8441	31931	
8442	31943	
8443	31963	
8444	31984	
8445	31998	
8446	32002	
8447	32004	
8448	32013	
8449	32033	
8450	32061	
8451	32083	
8452	32087	
8453	32073	
8454	32050	
8455	32037	
8456	32048	
8457	32091	
8458	32154	
8459	32219	
8460	32268	
8461	32292	
8462	32299	
8463	32304	
8464	32321	
8465	32354	
8466	32389	
8467	32406	
8468	32389	
8469	32339	
8470	32276	
8471	32230	
8472	32224	
8473	32259	
8474	32313	
8475	32350	
8476	32344	
8477	32292	
8478	32222	
8479	32170	
8480	32159	
8481	32186	
8482	32217	
8483	32212	
8484	32150	
8485	32043	
8486	31930	
8487	31856	
8488	31846	
8489	31889	
8490	31943	
8491	31966	
8492	31929	
8493	31842	
8494	31735	
8495	31649	
8496	31612	
8497	31626	
8498	31678	
8499	31743	
8500	31800	
8501	31836	
8502	31847	
8503	31836	
8504	31810	
8505	31775	
8506	31737	
8507	31700	
8508	31666	
8509	31639	
8510	31623	
8511	31621	
8512	31632	
8513	31648	
8514	31654	
8515	31635	
8516	31587	
8517	31516	
8518	31445	
8519	31402	
8520	31407	
8521	31459	
8522	31540	
8523	31616	
8524	31660	
8525	31657	
8526	31618	
8527	31564	
8528	31519	
8529	31492	
8530	31476	
8531	31456	
8532	31418	
8533	31369	
8534	31328	
8535	31318	
8536	31349	
8537	31406	
8538	31460	
8539	31482	
8540	31467	
8541	31430	
8542	31404	
8543	31415	
8544	31464	
8545	31532	
8546	31588	
8547	31613	
8548	31606	
8549	31583	
8550	31565	
8551	31565	
8552	31582	
8553	31604	
8554	31622	
8555	31630	
8556	31634	
8557	31638	
8558	31645	
8559	31651	
8560	31649	
8561	31639	
8562	31627	
8563	31623	
8564	31634	
8565	31660	
8566	31700	
8567	31755	
8568	31841	
8569	31982	
8570	32196	
8571	32478	
8572	32792	
8573	33082	
8574	33297	
8575	33414	
8576	33447	
8577	33431	
8578	33396	
8579	33342	
8580	33246	
8581	33077	
8582	32828	
8583	32523	
8584	32211	
8585	31930	
8586	31685	
8587	31445	
8588	31165	
8589	30820	
8590	30425	
8591	30026	
8592	29673	
8593	29383	
8594	29131	
8595	28870	
8596	28560	
8597	28203	
8598	27834	
8599	27505	
8600	27250	
8601	27064	
8602	26923	
8603	26799	
8604	26690	
8605	26614	
8606	26595	
8607	26630	
8608	26688	
8609	26719	
8610	26684	
8611	26576	
8612	26425	
8613	26285	
8614	26201	
8615	26198	
8616	26275	
8617	26416	
8618	26610	
8619	26857	
8620	27161	
8621	27521	
8622	27924	
8623	28341	
8624	28749	
8625	29137	
8626	29515	
8627	29895	
8628	30273	
8629	30617	
8630	30883	
8631	31046	
8632	31126	
8633	31183	
8634	31282	
8635	31449	
8636	31652	
8637	31825	
8638	31915	
8639	31928	
8640	31920	
8641	31959	
8642	32069	
8643	32211	
8644	32311	
8645	32312	
8646	32222	
8647	32108	
8648	32051	
8649	32097	
8650	32225	
8651	32365	
8652	32446	
8653	32439	
8654	32366	
8655	32276	
8656	32211	
8657	32182	
8658	32174	
8659	32170	
8660	32167	
8661	32177	
8662	32211	
8663	32261	
8664	32297	
8665	32293	
8666	32245	
8667	32177	
8668	32133	
8669	32140	
8670	32194	
8671	32257	
8672	32286	
8673	32259	
8674	32193	
8675	32130	
8676	32106	
8677	32128	
8678	32173	
8679	32208	
8680	32215	
8681	32204	
8682	32200	
8683	32216	
8684	32241	
8685	32246	
8686	32212	
8687	32147	
8688	32088	
8689	32074	
8690	32122	
8691	32206	
8692	32277	
8693	32295	
8694	32260	
8695	32205	
8696	32178	
8697	32205	
8698	32267	
8699	32319	
8700	32318	
8701	32259	
8702	32174	
8703	32115	
8704	32117	
8705	32177	
8706	32259	
8707	32317	
8708	32328	
8709	32299	
8710	32258	
8711	32233	
8712	32235	
8713	32259	
8714	32290	
8715	32317	
8716	32337	
8717	32347	
8718	32343	
8719	32317	
8720	32269	
8721	32209	
8722	32161	
8723	32148	
8724	32176	
8725	32231	
8726	32287	
8727	32319	
8728	32323	
8729	32309	
8730	32297	
8731	32297	
8732	32305	
8733	32305	
8734	32283	
8735	32243	
8736	32199	
8737	32173	
8738	32176	
8739	32201	
8740	32232	
8741	32252	
8742	32257	
8743	32254	
8744	32257	
8745	32275	
8746	32308	
8747	32346	
8748	32378	
8749	32394	
8750	32393	
8751	32376	
8752	32347	
8753	32311	
8754	32278	
8755	32260	
8756	32266	
8757	32294	
8758	32328	
8759	32345	
8760	32326	
8761	32273	
8762	32208	
8763	32167	
8764	32175	
8765	32228	
8766	32295	
8767	32338	
8768	32332	
8769	32288	
8770	32242	
8771	32233	
8772	32275	
8773	32345	
8774	32401	
8775	32409	
8776	32368	
8777	32312	
8778	32284	
8779	32307	
8780	32366	
8781	32416	
8782	32422	
8783	32379	
8784	32323	
8785	32304	
8786	32352	
8787	32454	
8788	32560	
8789	32613	
8790	32588	
8791	32505	
8792	32417	
8793	32378	
8794	32404	
8795	32473	
8796	32538	
8797	32558	
8798	32524	
8799	32455	
8800	32385	
8801	32341	
8802	32330	
8803	32346	
8804	32376	
8805	32417	
8806	32465	
8807	32516	
8808	32553	
8809	32560	
8810	32526	
8811	32462	
8812	32397	
8813	32363	
8814	32380	
8815	32441	
8816	32519	
8817	32581	
8818	32607	
8819	32600	
8820	32576	
8821	32555	
8822	32549	
8823	32556	
8824	32573	
8825	32596	
8826	32628	
8827	32668	
8828	32712	
8829	32747	
8830	32761	
8831	32752	
8832	32724	
8833	32691	
8834	32662	
8835	32640	
8836	32620	
8837	32600	
8838	32582	
8839	32577	
8840	32593	
8841	32628	
8842	32666	
8843	32686	
8844	32673	
8845	32632	
8846	32583	
8847	32555	
8848	32565	
8849	32609	
8850	32664	
8851	32700	
8852	32701	
8853	32668	
8854	32622	
8855	32589	
8856	32582	
8857	32598	
8858	32619	
8859	32623	
8860	32600	
8861	32555	
8862	32508	
8863	32482	
8864	32491	
8865	32533	
8866	32589	
8867	32632	
8868	32639	
8869	32605	
8870	32543	
8871	32482	
8872	32450	
8873	32460	
8874	32506	
8875	32558	
8876	32588	
8877	32576	
8878	32527	
8879	32464	
8880	32418	
8881	32406	
8882	32427	
8883	32461	
8884	32485	
8885	32488	
8886	32471	
8887	32448	
8888	32434	
8889	32432	
8890	32432	
8891	32424	
8892	32401	
8893	32374	
8894	32357	
8895	32363	
8896	32391	
8897	32423	
8898	32435	
8899	32413	
8900	32358	
8901	32292	
8902	32241	
8903	32222	
8904	32237	
8905	32272	
8906	32307	
8907	32331	
8908	32342	
8909	32347	
8910	32351	
8911	32353	
8912	32347	
8913	32328	
8914	32299	
8915	32268	
8916	32247	
8917	32238	
8918	32233	
8919	32221	
8920	32194	
8921	32162	
8922	32142	
8923	32152	
8924	32193	
8925	32249	
8926	32296	
8927	32312	
8928	32297	
8929	32267	
8930	32244	
8931	32240	
8932	32249	
8933	32251	
8934	32230	
8935	32186	
8936	32133	
8937	32095	
8938	32086	
8939	32106	
8940	32136	
8941	32158	
8942	32156	
8943	32133	
8944	32099	
8945	32072	
8946	32061	
8947	32068	
8948	32085	
8949	32103	
8950	32112	
8951	32109	
8952	32099	
8953	32087	
8954	32080	
8955	32083	
8956	32091	
8957	32100	
8958	32104	
8959	32105	
8960	32107	
8961	32117	
8962	32139	
8963	32170	
8964	32202	
8965	32226	
8966	32239	
8967	32242	
8968	32238	
8969	32228	
8970	32208	
8971	32172	
8972	32123	
8973	32071	
8974	32034	
8975	32031	
8976	32066	
8977	32130	
8978	32201	
8979	32257	
8980	32285	
8981	32285	
8982	32266	
8983	32240	
8984	32213	
8985	32193	
8986	32181	
8987	32180	
8988	32190	
8989	32207	
8990	32224	
8991	32235	
8992	32241	
8993	32247	
8994	32256	
8995	32268	
8996	32271	
8997	32254	
8998	32209	
8999	32144	
9000	32080	
9001	32040	
9002	32038	
9003	32072	
9004	32124	
9005	32174	
9006	32207	
9007	32223	
9008	32231	
9009	32239	
9010	32251	
9011	32261	
9012	32261	
9013	32249	
9014	32225	
9015	32198	
9016	32173	
9017	32156	
9018	32151	
9019	32161	
9020	32188	
9021	32229	
9022	32270	
9023	32292	
9024	32282	
9025	32240	
9026	32186	
9027	32150	
9028	32156	
9029	32204	
9030	32272	
9031	32324	
9032	32334	
9033	32296	
9034	32227	
9035	32155	
9036	32102	
9037	32075	
9038	32070	
9039	32079	
9040	32098	
9041	32127	
9042	32165	
9043	32204	
9044	32234	
9045	32249	
9046	32255	
9047	32263	
9048	32280	
9049	32304	
9050	32316	
9051	32299	
9052	32246	
9053	32168	
9054	32093	
9055	32049	
9056	32049	
9057	32084	
9058	32129	
9059	32158	
9060	32161	
9061	32144	
9062	32125	
9063	32121	
9064	32139	
9065	32168	
9066	32192	
9067	32191	
9068	32159	
9069	32099	
9070	32026	
9071	31965	
9072	31937	
9073	31951	
9074	32004	
9075	32077	
9076	32139	
9077	32165	
9078	32145	
9079	32090	
9080	32028	
9081	31991	
9082	31993	
9083	32025	
9084	32061	
9085	32074	
9086	32053	
9087	32009	
9088	31968	
9089	31951	
9090	31965	
9091	31994	
9092	32021	
9093	32033	
9094	32030	
9095	32022	
9096	32014	
9097	32005	
9098	31991	
9099	31970	
9100	31952	
9101	31947	
9102	31963	
9103	31992	
9104	32018	
9105	32022	
9106	32000	
9107	31967	
9108	31947	
9109	31956	
9110	31990	
9111	32029	
9112	32049	
9113	32036	
9114	32001	
9115	31965	
9116	31948	
9117	31953	
9118	31962	
9119	31954	
9120	31922	
9121	31880	
9122	31858	
9123	31880	
9124	31948	
9125	32032	
9126	32095	
9127	32110	
9128	32081	
9129	32033	
9130	31997	
9131	31987	
9132	31991	
9133	31987	
9134	31958	
9135	31906	
9136	31853	
9137	31824	
9138	31827	
9139	31855	
9140	31885	
9141	31905	
9142	31912	
9143	31919	
9144	31938	
9145	31969	
9146	31998	
9147	32004	
9148	31975	
9149	31921	
9150	31864	
9151	31831	
9152	31835	
9153	31872	
9154	31922	
9155	31964	
9156	31985	
9157	31985	
9158	31971	
9159	31950	
9160	31925	
9161	31898	
9162	31872	
9163	31851	
9164	31840	
9165	31841	
9166	31849	
9167	31858	
9168	31867	
9169	31878	
9170	31893	
9171	31912	
9172	31927	
9173	31928	
9174	31907	
9175	31869	
9176	31825	
9177	31794	
9178	31785	
9179	31800	
9180	31829	
9181	31862	
9182	31887	
9183	31900	
9184	31900	
9185	31888	
9186	31868	
9187	31845	
9188	31825	
9189	31813	
9190	31811	
9191	31816	
9192	31825	
9193	31832	
9194	31837	
9195	31840	
9196	31847	
9197	31856	
9198	31861	
9199	31854	
9200	31830	
9201	31794	
9202	31761	
9203	31750	
9204	31770	
9205	31819	
9206	31877	
9207	31919	
9208	31930	
9209	31909	
9210	31870	
9211	31837	
9212	31826	
9213	31842	
9214	31877	
9215	31915	
9216	31949	
9217	31978	
9218	32009	
9219	32044	
9220	32079	
9221	32102	
9222	32100	
9223	32077	
9224	32049	
9225	32042	
9226	32075	
9227	32152	
9228	32248	
9229	32329	
9230	32364	
9231	32342	
9232	32279	
9233	32205	
9234	32151	
9235	32134	
9236	32152	
9237	32190	
9238	32232	
9239	32271	
9240	32306	
9241	32339	
9242	32367	
9243	32385	
9244	32390	
9245	32382	
9246	32369	
9247	32360	
9248	32360	
9249	32369	
9250	32382	
9251	32395	
9252	32408	
9253	32419	
9254	32425	
9255	32418	
9256	32395	
9257	32360	
9258	32326	
9259	32306	
9260	32310	
9261	32331	
9262	32351	
9263	32353	
9264	32332	
9265	32298	
9266	32267	
9267	32252	
9268	32251	
9269	32245	
9270	32217	
9271	32159	
9272	32081	
9273	32004	
9274	31946	
9275	31913	
9276	31896	
9277	31878	
9278	31850	
9279	31813	
9280	31778	
9281	31758	
9282	31760	
9283	31784	
9284	31821	
9285	31859	
9286	31882	
9287	31879	
9288	31842	
9289	31774	
9290	31695	
9291	31632	
9292	31609	
9293	31634	
9294	31690	
9295	31742	
9296	31757	
9297	31722	
9298	31648	
9299	31565	
9300	31499	
9301	31463	
9302	31451	
9303	31451	
9304	31458	
9305	31480	
9306	31524	
9307	31586	
9308	31649	
9309	31686	
9310	31681	
9311	31639	
9312	31583	
9313	31541	
9314	31529	
9315	31543	
9316	31562	
9317	31565	
9318	31541	
9319	31495	
9320	31441	
9321	31398	
9322	31376	
9323	31381	
9324	31407	
9325	31447	
9326	31494	
9327	31537	
9328	31569	
9329	31587	
9330	31592	
9331	31595	
9332	31603	
9333	31620	
9334	31638	
9335	31641	
9336	31619	
9337	31573	
9338	31524	
9339	31500	
9340	31522	
9341	31587	
9342	31675	
9343	31752	
9344	31794	
9345	31795	
9346	31768	
9347	31735	
9348	31714	
9349	31712	
9350	31726	
9351	31749	
9352	31777	
9353	31819	
9354	31894	
9355	32024	
9356	32228	
9357	32502	
9358	32816	
9359	33116	
9360	33344	
9361	33459	
9362	33460	
9363	33382	
9364	33276	
9365	33182	
9366	33100	
9367	32992	
9368	32802	
9369	32493	
9370	32070	
9371	31589	
9372	31123	
9373	30730	
9374	30422	
9375	30160	
9376	29884	
9377	29548	
9378	29146	
9379	28712	
9380	28294	
9381	27923	
9382	27594	
9383	27279	
9384	26948	
9385	26603	
9386	26279	
9387	26029	
9388	25893	
9389	25884	
9390	25978	
9391	26128	
9392	26281	
9393	26393	
9394	26442	
9395	26422	
9396	26354	
9397	26271	
9398	26216	
9399	26224	
9400	26310	
9401	26462	
9402	26643	
9403	26813	
9404	26954	
9405	27086	
9406	27256	
9407	27507	
9408	27851	
9409	28256	
9410	28672	
9411	29062	
9412	29423	
9413	29777	
9414	30142	
9415	30511	
9416	30847	
9417	31114	
9418	31300	
9419	31422	
9420	31518	
9421	31619	
9422	31733	
9423	31848	
9424	31947	
9425	32024	
9426	32087	
9427	32149	
9428	32215	
9429	32278	
9430	32322	
9431	32337	
9432	32324	
9433	32300	
9434	32288	
9435	32307	
9436	32358	
9437	32423	
9438	32473	
9439	32481	
9440	32442	
9441	32379	
9442	32328	
9443	32321	
9444	32365	
9445	32436	
9446	32492	
9447	32500	
9448	32455	
9449	32378	
9450	32303	
9451	32259	
9452	32250	
9453	32266	
9454	32287	
9455	32301	
9456	32306	
9457	32308	
9458	32309	
9459	32309	
9460	32303	
9461	32287	
9462	32268	
9463	32255	
9464	32257	
9465	32276	
9466	32308	
9467	32341	
9468	32362	
9469	32363	
9470	32340	
9471	32302	
9472	32260	
9473	32230	
9474	32223	
9475	32242	
9476	32278	
9477	32316	
9478	32338	
9479	32335	
9480	32309	
9481	32271	
9482	32233	
9483	32205	
9484	32191	
9485	32191	
9486	32206	
9487	32235	
9488	32271	
9489	32301	
9490	32309	
9491	32285	
9492	32232	
9493	32166	
9494	32116	
9495	32100	
9496	32126	
9497	32178	
9498	32236	
9499	32278	
9500	32297	
9501	32300	
9502	32301	
9503	32311	
9504	32333	
9505	32365	
9506	32395	
9507	32418	
9508	32428	
9509	32428	
9510	32419	
9511	32406	
9512	32393	
9513	32381	
9514	32374	
9515	32367	
9516	32356	
9517	32333	
9518	32297	
9519	32249	
9520	32203	
9521	32171	
9522	32164	
9523	32181	
9524	32214	
9525	32248	
9526	32274	
9527	32291	
9528	32304	
9529	32320	
9530	32340	
9531	32359	
9532	32370	
9533	32363	
9534	32339	
9535	32304	
9536	32274	
9537	32264	
9538	32283	
9539	32331	
9540	32394	
9541	32452	
9542	32486	
9543	32487	
9544	32460	
9545	32421	
9546	32390	
9547	32381	
9548	32396	
9549	32421	
9550	32439	
9551	32438	
9552	32420	
9553	32396	
9554	32384	
9555	32393	
9556	32421	
9557	32455	
9558	32479	
9559	32481	
9560	32462	
9561	32431	
9562	32404	
9563	32397	
9564	32416	
9565	32456	
9566	32502	
9567	32534	
9568	32535	
9569	32501	
9570	32447	
9571	32398	
9572	32382	
9573	32411	
9574	32477	
9575	32548	
9576	32588	
9577	32579	
9578	32527	
9579	32463	
9580	32426	
9581	32439	
9582	32497	
9583	32575	
9584	32639	
9585	32672	
9586	32673	
9587	32658	
9588	32641	
9589	32628	
9590	32613	
9591	32588	
9592	32554	
9593	32523	
9594	32513	
9595	32530	
9596	32566	
9597	32602	
9598	32619	
9599	32609	
9600	32579	
9601	32547	
9602	32527	
9603	32525	
9604	32537	
9605	32555	
9606	32578	
9607	32608	
9608	32649	
9609	32695	
9610	32735	
9611	32753	
9612	32744	
9613	32716	
9614	32688	
9615	32682	
9616	32710	
9617	32763	
9618	32818	
9619	32851	
9620	32850	
9621	32819	
9622	32778	
9623	32748	
9624	32743	
9625	32759	
9626	32783	
9627	32797	
9628	32790	
9629	32765	
9630	32732	
9631	32708	
9632	32701	
9633	32713	
9634	32736	
9635	32757	
9636	32767	
9637	32764	
9638	32754	
9639	32743	
9640	32739	
9641	32743	
9642	32749	
9643	32752	
9644	32751	
9645	32745	
9646	32741	
9647	32743	
9648	32750	
9649	32759	
9650	32763	
9651	32755	
9652	32732	
9653	32700	
9654	32667	
9655	32644	
9656	32636	
9657	32646	
9658	32668	
9659	32692	
9660	32705	
9661	32701	
9662	32680	
9663	32651	
9664	32629	
9665	32625	
9666	32640	
9667	32669	
9668	32699	
9669	32720	
9670	32728	
9671	32725	
9672	32716	
9673	32700	
9674	32672	
9675	32628	
9676	32572	
9677	32519	
9678	32486	
9679	32489	
9680	32525	
9681	32575	
9682	32614	
9683	32620	
9684	32592	
9685	32545	
9686	32500	
9687	32471	
9688	32458	
9689	32448	
9690	32428	
9691	32392	
9692	32345	
9693	32301	
9694	32266	
9695	32244	
9696	32229	
9697	32219	
9698	32213	
9699	32217	
9700	32228	
9701	32238	
9702	32236	
9703	32218	
9704	32190	
9705	32173	
9706	32187	
9707	32237	
9708	32305	
9709	32356	
9710	32360	
9711	32306	
9712	32212	
9713	32113	
9714	32046	
9715	32024	
9716	32038	
9717	32060	
9718	32067	
9719	32052	
9720	32024	
9721	32000	
9722	31993	
9723	32003	
9724	32021	
9725	32035	
9726	32041	
9727	32039	
9728	32034	
9729	32025	
9730	32010	
9731	31987	
9732	31961	
9733	31941	
9734	31936	
9735	31946	
9736	31963	
9737	31976	
9738	31977	
9739	31970	
9740	31964	
9741	31969	
9742	31985	
9743	32004	
9744	32014	
9745	32011	
9746	31999	
9747	31994	
9748	32004	
9749	32030	
9750	32059	
9751	32074	
9752	32064	
9753	32037	
9754	32008	
9755	31998	
9756	32012	
9757	32039	
9758	32059	
9759	32054	
9760	32023	
9761	31981	
9762	31949	
9763	31943	
9764	31964	
9765	31999	
9766	32033	
9767	32052	
9768	32056	
9769	32048	
9770	32034	
9771	32018	
9772	31999	
9773	31982	
9774	31975	
9775	31984	
9776	32011	
9777	32045	
9778	32067	
9779	32063	
9780	32034	
9781	31996	
9782	31972	
9783	31980	
9784	32016	
9785	32062	
9786	32094	
9787	32101	
9788	32091	
9789	32082	
9790	32084	
9791	32094	
9792	32092	
9793	32062	
9794	32004	
9795	31938	
9796	31897	
9797	31900	
9798	31944	
9799	32000	
9800	32037	
9801	32036	
9802	32003	
9803	31965	
9804	31950	
9805	31968	
9806	32010	
9807	32054	
9808	32080	
9809	32083	
9810	32072	
9811	32063	
9812	32064	
9813	32073	
9814	32078	
9815	32069	
9816	32046	
9817	32021	
9818	32006	
9819	32009	
9820	32024	
9821	32036	
9822	32031	
9823	32003	
9824	31962	
9825	31925	
9826	31909	
9827	31915	
9828	31936	
9829	31956	
9830	31964	
9831	31961	
9832	31955	
9833	31958	
9834	31979	
9835	32011	
9836	32041	
9837	32056	
9838	32048	
9839	32018	
9840	31982	
9841	31954	
9842	31947	
9843	31965	
9844	31998	
9845	32029	
9846	32041	
9847	32026	
9848	31991	
9849	31954	
9850	31934	
9851	31940	
9852	31966	
9853	31991	
9854	31993	
9855	31962	
9856	31904	
9857	31840	
9858	31795	
9859	31781	
9860	31795	
9861	31823	
9862	31849	
9863	31863	
9864	31866	
9865	31863	
9866	31861	
9867	31863	
9868	31869	
9869	31875	
9870	31879	
9871	31880	
9872	31877	
9873	31871	
9874	31865	
9875	31863	
9876	31871	
9877	31887	
9878	31904	
9879	31910	
9880	31892	
9881	31846	
9882	31783	
9883	31721	
9884	31680	
9885	31670	
9886	31690	
9887	31729	
9888	31774	
9889	31814	
9890	31845	
9891	31862	
9892	31857	
9893	31827	
9894	31774	
9895	31715	
9896	31675	
9897	31676	
9898	31723	
9899	31799	
9900	31872	
9901	31910	
9902	31897	
9903	31844	
9904	31778	
9905	31727	
9906	31707	
9907	31714	
9908	31731	
9909	31738	
9910	31727	
9911	31706	
9912	31689	
9913	31685	
9914	31695	
9915	31706	
9916	31704	
9917	31682	
9918	31647	
9919	31616	
9920	31602	
9921	31613	
9922	31646	
9923	31688	
9924	31727	
9925	31753	
9926	31760	
9927	31745	
9928	31711	
9929	31664	
9930	31615	
9931	31578	
9932	31562	
9933	31568	
9934	31586	
9935	31604	
9936	31614	
9937	31614	
9938	31612	
9939	31613	
9940	31621	
9941	31628	
9942	31626	
9943	31610	
9944	31587	
9945	31572	
9946	31576	
9947	31602	
9948	31641	
9949	31677	
9950	31701	
9951	31710	
9952	31711	
9953	31710	
9954	31712	
9955	31714	
9956	31708	
9957	31691	
9958	31664	
9959	31633	
9960	31606	
9961	31590	
9962	31585	
9963	31586	
9964	31589	
9965	31588	
9966	31581	
9967	31568	
9968	31549	
9969	31530	
9970	31516	
9971	31513	
9972	31521	
9973	31534	
9974	31547	
9975	31555	
9976	31561	
9977	31575	
9978	31604	
9979	31647	
9980	31693	
9981	31721	
9982	31719	
9983	31694	
9984	31667	
9985	31672	
9986	31728	
9987	31830	
9988	31945	
9989	32032	
9990	32060	
9991	32030	
9992	31973	
9993	31929	
9994	31929	
9995	31973	
9996	32036	
9997	32083	
9998	32088	
9999	32051	
10000	31994	
10001	31945	
10002	31926	
10003	31939	
10004	31973	
10005	32010	
10006	32037	
10007	32051	
10008	32055	
10009	32055	
10010	32054	
10011	32054	
10012	32056	
10013	32061	
10014	32069	
10015	32077	
10016	32085	
10017	32090	
10018	32089	
10019	32085	
10020	32076	
10021	32063	
10022	32048	
10023	32033	
10024	32018	
10025	32005	
10026	31990	
10027	31969	
10028	31934	
10029	31886	
10030	31831	
10031	31781	
10032	31748	
10033	31735	
10034	31734	
10035	31735	
10036	31725	
10037	31700	
10038	31662	
10039	31617	
10040	31570	
10041	31527	
10042	31491	
10043	31466	
10044	31459	
10045	31468	
10046	31487	
10047	31503	
10048	31506	
