# OpenSignals Text File Format
# {"00:80:E1:26:9E:1A":{"sensor":["ECG"],"device name":"00:80:E1:26:9E:1A","column":["nSeq","ECG"],"sync interval":2,"time":"17:14:04","comments":"","keywords":"","device connection":"BLE00:80:E1:26:9E:1A","channels":[0],"date":"2025-06-03","mode":0,"digital IO":[],"firmware version":256,"device":"cardiobanplux","position":0,"sampling rate":1000,"label":["ECG"],"resolution":[16],"special":[{}],"sleeve color":["UNKNOWN"]}}
# EndOfHeader
0	2991	
1	2752	
2	2793	
3	3146	
4	3616	
5	3922	
6	3913	
7	3673	
8	3440	
9	3409	
10	3591	
11	3836	
12	3995	
13	4059	
14	4148	
15	4374	
16	4697	
17	4932	
18	4903	
19	4610	
20	4265	
21	4144	
22	4363	
23	4774	
24	5069	
25	5015	
26	4630	
27	4168	
28	3921	
29	4014	
30	4339	
31	4661	
32	4807	
33	4757	
34	4610	
35	4467	
36	4356	
37	4245	
38	4113	
39	3993	
40	3950	
41	4011	
42	4140	
43	4265	
44	4343	
45	4390	
46	4456	
47	4569	
48	4702	
49	4802	
50	4826	
51	4782	
52	4722	
53	4710	
54	4780	
55	4920	
56	5069	
57	5159	
58	5161	
59	5110	
60	5087	
61	5145	
62	5259	
63	5331	
64	5267	
65	5067	
66	4843	
67	4745	
68	4859	
69	5138	
70	5422	
71	5547	
72	5444	
73	5187	
74	4934	
75	4823	
76	4881	
77	5003	
78	5037	
79	4889	
80	4603	
81	4336	
82	4251	
83	4404	
84	4705	
85	4979	
86	5088	
87	5023	
88	4898	
89	4867	
90	5014	
91	5297	
92	5595	
93	5794	
94	5866	
95	5865	
96	5876	
97	5936	
98	6018	
99	6071	
100	6075	
101	6065	
102	6099	
103	6201	
104	6330	
105	6416	
106	6419	
107	6363	
108	6326	
109	6370	
110	6498	
111	6654	
112	6771	
113	6836	
114	6889	
115	6990	
116	7149	
117	7303	
118	7351	
119	7230	
120	6964	
121	6660	
122	6438	
123	6353	
124	6374	
125	6426	
126	6459	
127	6486	
128	6550	
129	6666	
130	6780	
131	6800	
132	6675	
133	6449	
134	6247	
135	6189	
136	6308	
137	6520	
138	6693	
139	6743	
140	6697	
141	6654	
142	6701	
143	6839	
144	6993	
145	7082	
146	7091	
147	7089	
148	7168	
149	7365	
150	7611	
151	7773	
152	7751	
153	7569	
154	7370	
155	7329	
156	7514	
157	7837	
158	8110	
159	8183	
160	8043	
161	7804	
162	7620	
163	7579	
164	7662	
165	7783	
166	7864	
167	7891	
168	7917	
169	8006	
170	8168	
171	8345	
172	8448	
173	8433	
174	8341	
175	8275	
176	8321	
177	8489	
178	8693	
179	8824	
180	8820	
181	8715	
182	8607	
183	8581	
184	8642	
185	8720	
186	8738	
187	8685	
188	8629	
189	8651	
190	8763	
191	8890	
192	8929	
193	8852	
194	8728	
195	8676	
196	8763	
197	8952	
198	9138	
199	9220	
200	9173	
201	9045	
202	8908	
203	8813	
204	8766	
205	8761	
206	8798	
207	8887	
208	9026	
209	9177	
210	9266	
211	9218	
212	9005	
213	8683	
214	8377	
215	8240	
216	8371	
217	8753	
218	9243	
219	9638	
220	9788	
221	9683	
222	9447	
223	9241	
224	9144	
225	9113	
226	9043	
227	8882	
228	8690	
229	8597	
230	8683	
231	8902	
232	9113	
233	9191	
234	9131	
235	9038	
236	9024	
237	9111	
238	9213	
239	9234	
240	9166	
241	9100	
242	9149	
243	9335	
244	9562	
245	9693	
246	9663	
247	9523	
248	9399	
249	9378	
250	9445	
251	9501	
252	9461	
253	9334	
254	9217	
255	9204	
256	9285	
257	9341	
258	9237	
259	8952	
260	8625	
261	8468	
262	8603	
263	8969	
264	9356	
265	9573	
266	9585	
267	9527	
268	9563	
269	9730	
270	9895	
271	9870	
272	9588	
273	9183	
274	8904	
275	8919	
276	9182	
277	9474	
278	9578	
279	9449	
280	9233	
281	9142	
282	9270	
283	9525	
284	9693	
285	9614	
286	9293	
287	8903	
288	8651	
289	8643	
290	8833	
291	9090	
292	9320	
293	9518	
294	9733	
295	9979	
296	10190	
297	10261	
298	10148	
299	9922	
300	9738	
301	9728	
302	9895	
303	10108	
304	10189	
305	10044	
306	9741	
307	9456	
308	9355	
309	9467	
310	9664	
311	9764	
312	9668	
313	9442	
314	9267	
315	9302	
316	9567	
317	9927	
318	10188	
319	10232	
320	10094	
321	9917	
322	9828	
323	9844	
324	9879	
325	9855	
326	9793	
327	9801	
328	9947	
329	10155	
330	10229	
331	10008	
332	9537	
333	9079	
334	8944	
335	9265	
336	9889	
337	10486	
338	10779	
339	10721	
340	10487	
341	10304	
342	10272	
343	10324	
344	10325	
345	10225	
346	10108	
347	10105	
348	10265	
349	10495	
350	10630	
351	10571	
352	10366	
353	10176	
354	10148	
355	10298	
356	10513	
357	10649	
358	10658	
359	10617	
360	10650	
361	10806	
362	11000	
363	11083	
364	10970	
365	10729	
366	10544	
367	10579	
368	10856	
369	11239	
370	11543	
371	11665	
372	11650	
373	11627	
374	11699	
375	11859	
376	12015	
377	12070	
378	12003	
379	11872	
380	11762	
381	11726	
382	11757	
383	11820	
384	11885	
385	11949	
386	12018	
387	12086	
388	12132	
389	12140	
390	12112	
391	12070	
392	12041	
393	12035	
394	12050	
395	12082	
396	12132	
397	12203	
398	12287	
399	12358	
400	12391	
401	12383	
402	12352	
403	12325	
404	12300	
405	12249	
406	12146	
407	12017	
408	11953	
409	12046	
410	12311	
411	12637	
412	12847	
413	12825	
414	12617	
415	12397	
416	12346	
417	12508	
418	12759	
419	12907	
420	12833	
421	12578	
422	12303	
423	12165	
424	12207	
425	12345	
426	12444	
427	12426	
428	12317	
429	12219	
430	12240	
431	12434	
432	12789	
433	13251	
434	13752	
435	14221	
436	14583	
437	14767	
438	14732	
439	14486	
440	14094	
441	13665	
442	13316	
443	13123	
444	13091	
445	13148	
446	13192	
447	13160	
448	13067	
449	12997	
450	13041	
451	13223	
452	13481	
453	13705	
454	13822	
455	13834	
456	13816	
457	13846	
458	13953	
459	14106	
460	14251	
461	14363	
462	14467	
463	14610	
464	14815	
465	15046	
466	15239	
467	15341	
468	15359	
469	15340	
470	15335	
471	15345	
472	15330	
473	15249	
474	15109	
475	14978	
476	14937	
477	15022	
478	15183	
479	15316	
480	15329	
481	15208	
482	15022	
483	14886	
484	14876	
485	14986	
486	15133	
487	15216	
488	15184	
489	15073	
490	14973	
491	14959	
492	15032	
493	15115	
494	15116	
495	14993	
496	14798	
497	14641	
498	14610	
499	14716	
500	14884	
501	15020	
502	15078	
503	15084	
504	15103	
505	15173	
506	15268	
507	15319	
508	15273	
509	15139	
510	14979	
511	14858	
512	14801	
513	14778	
514	14753	
515	14723	
516	14725	
517	14796	
518	14922	
519	15032	
520	15054	
521	14972	
522	14855	
523	14802	
524	14867	
525	15006	
526	15115	
527	15114	
528	15017	
529	14930	
530	14967	
531	15164	
532	15445	
533	15681	
534	15788	
535	15776	
536	15729	
537	15719	
538	15746	
539	15750	
540	15676	
541	15538	
542	15423	
543	15429	
544	15587	
545	15836	
546	16052	
547	16143	
548	16107	
549	16029	
550	16008	
551	16077	
552	16173	
553	16200	
554	16117	
555	15974	
556	15877	
557	15895	
558	16005	
559	16110	
560	16112	
561	15995	
562	15836	
563	15757	
564	15846	
565	16110	
566	16476	
567	16846	
568	17151	
569	17383	
570	17587	
571	17809	
572	18054	
573	18248	
574	18267	
575	18010	
576	17468	
577	16761	
578	16083	
579	15594	
580	15327	
581	15180	
582	14984	
583	14633	
584	14149	
585	13665	
586	13332	
587	13218	
588	13270	
589	13357	
590	13363	
591	13253	
592	13088	
593	12966	
594	12968	
595	13118	
596	13396	
597	13756	
598	14151	
599	14546	
600	14914	
601	15243	
602	15538	
603	15805	
604	16047	
605	16258	
606	16432	
607	16576	
608	16716	
609	16883	
610	17107	
611	17384	
612	17680	
613	17933	
614	18088	
615	18119	
616	18045	
617	17921	
618	17818	
619	17801	
620	17900	
621	18092	
622	18296	
623	18407	
624	18351	
625	18140	
626	17881	
627	17709	
628	17705	
629	17836	
630	17987	
631	18048	
632	17999	
633	17919	
634	17922	
635	18054	
636	18264	
637	18437	
638	18488	
639	18419	
640	18309	
641	18246	
642	18257	
643	18304	
644	18324	
645	18290	
646	18232	
647	18210	
648	18259	
649	18361	
650	18454	
651	18479	
652	18416	
653	18288	
654	18141	
655	18015	
656	17929	
657	17887	
658	17889	
659	17944	
660	18059	
661	18232	
662	18436	
663	18626	
664	18756	
665	18811	
666	18817	
667	18819	
668	18845	
669	18881	
670	18880	
671	18800	
672	18649	
673	18494	
674	18433	
675	18538	
676	18804	
677	19138	
678	19403	
679	19493	
680	19397	
681	19198	
682	19027	
683	18985	
684	19094	
685	19293	
686	19484	
687	19594	
688	19611	
689	19579	
690	19551	
691	19532	
692	19473	
693	19305	
694	19012	
695	18672	
696	18426	
697	18394	
698	18593	
699	18927	
700	19253	
701	19483	
702	19622	
703	19733	
704	19865	
705	20002	
706	20090	
707	20100	
708	20062	
709	20046	
710	20100	
711	20208	
712	20298	
713	20303	
714	20214	
715	20087	
716	20001	
717	19997	
718	20052	
719	20115	
720	20151	
721	20184	
722	20263	
723	20415	
724	20592	
725	20697	
726	20658	
727	20492	
728	20311	
729	20246	
730	20347	
731	20549	
732	20722	
733	20770	
734	20704	
735	20622	
736	20627	
737	20744	
738	20898	
739	20977	
740	20919	
741	20764	
742	20628	
743	20615	
744	20737	
745	20916	
746	21047	
747	21091	
748	21101	
749	21173	
750	21348	
751	21565	
752	21695	
753	21647	
754	21437	
755	21187	
756	21034	
757	21038	
758	21159	
759	21305	
760	21414	
761	21495	
762	21592	
763	21733	
764	21890	
765	22004	
766	22038	
767	22000	
768	21935	
769	21873	
770	21812	
771	21732	
772	21637	
773	21573	
774	21601	
775	21741	
776	21938	
777	22089	
778	22115	
779	22019	
780	21892	
781	21840	
782	21911	
783	22055	
784	22179	
785	22230	
786	22245	
787	22316	
788	22507	
789	22776	
790	22993	
791	23030	
792	22860	
793	22586	
794	22372	
795	22334	
796	22469	
797	22671	
798	22822	
799	22872	
800	22859	
801	22855	
802	22896	
803	22966	
804	23021	
805	23040	
806	23041	
807	23057	
808	23103	
809	23158	
810	23187	
811	23168	
812	23112	
813	23052	
814	23026	
815	23057	
816	23149	
817	23283	
818	23425	
819	23533	
820	23577	
821	23559	
822	23516	
823	23499	
824	23529	
825	23585	
826	23615	
827	23578	
828	23487	
829	23404	
830	23397	
831	23496	
832	23668	
833	23849	
834	23988	
835	24077	
836	24140	
837	24199	
838	24253	
839	24280	
840	24268	
841	24228	
842	24196	
843	24198	
844	24239	
845	24296	
846	24338	
847	24358	
848	24369	
849	24393	
850	24437	
851	24477	
852	24478	
853	24417	
854	24309	
855	24208	
856	24174	
857	24230	
858	24341	
859	24425	
860	24408	
861	24272	
862	24076	
863	23916	
864	23864	
865	23924	
866	24040	
867	24138	
868	24180	
869	24176	
870	24166	
871	24179	
872	24217	
873	24257	
874	24280	
875	24285	
876	24284	
877	24283	
878	24275	
879	24253	
880	24223	
881	24214	
882	24261	
883	24370	
884	24497	
885	24558	
886	24475	
887	24235	
888	23901	
889	23592	
890	23419	
891	23423	
892	23562	
893	23743	
894	23884	
895	23948	
896	23959	
897	23969	
898	24024	
899	24139	
900	24292	
901	24440	
902	24534	
903	24549	
904	24491	
905	24403	
906	24343	
907	24357	
908	24452	
909	24593	
910	24720	
911	24783	
912	24763	
913	24687	
914	24611	
915	24589	
916	24646	
917	24761	
918	24875	
919	24934	
920	24922	
921	24872	
922	24845	
923	24876	
924	24951	
925	25006	
926	24988	
927	24900	
928	24811	
929	24810	
930	24937	
931	25147	
932	25340	
933	25427	
934	25394	
935	25306	
936	25258	
937	25307	
938	25435	
939	25565	
940	25619	
941	25581	
942	25504	
943	25478	
944	25565	
945	25751	
946	25957	
947	26084	
948	26079	
949	25956	
950	25776	
951	25597	
952	25443	
953	25311	
954	25202	
955	25142	
956	25168	
957	25285	
958	25446	
959	25573	
960	25610	
961	25568	
962	25513	
963	25514	
964	25583	
965	25666	
966	25685	
967	25603	
968	25465	
969	25365	
970	25382	
971	25517	
972	25692	
973	25804	
974	25796	
975	25692	
976	25579	
977	25545	
978	25632	
979	25813	
980	26015	
981	26163	
982	26207	
983	26148	
984	26030	
985	25916	
986	25861	
987	25892	
988	25991	
989	26108	
990	26189	
991	26204	
992	26169	
993	26134	
994	26148	
995	26219	
996	26312	
997	26376	
998	26380	
999	26338	
1000	26301	
1001	26316	
1002	26398	
1003	26518	
1004	26621	
1005	26654	
1006	26597	
1007	26471	
1008	26330	
1009	26239	
1010	26244	
1011	26350	
1012	26525	
1013	26718	
1014	26882	
1015	26994	
1016	27056	
1017	27082	
1018	27084	
1019	27065	
1020	27023	
1021	26962	
1022	26891	
1023	26825	
1024	26785	
1025	26788	
1026	26848	
1027	26968	
1028	27128	
1029	27283	
1030	27381	
1031	27387	
1032	27309	
1033	27198	
1034	27122	
1035	27127	
1036	27210	
1037	27327	
1038	27425	
1039	27483	
1040	27513	
1041	27548	
1042	27606	
1043	27678	
1044	27737	
1045	27758	
1046	27738	
1047	27700	
1048	27674	
1049	27685	
1050	27737	
1051	27811	
1052	27872	
1053	27898	
1054	27886	
1055	27860	
1056	27846	
1057	27860	
1058	27889	
1059	27909	
1060	27900	
1061	27869	
1062	27839	
1063	27837	
1064	27869	
1065	27918	
1066	27956	
1067	27968	
1068	27960	
1069	27958	
1070	27986	
1071	28038	
1072	28089	
1073	28104	
1074	28074	
1075	28023	
1076	27998	
1077	28038	
1078	28147	
1079	28284	
1080	28394	
1081	28442	
1082	28439	
1083	28429	
1084	28460	
1085	28547	
1086	28664	
1087	28767	
1088	28824	
1089	28840	
1090	28849	
1091	28883	
1092	28948	
1093	29018	
1094	29057	
1095	29046	
1096	29000	
1097	28957	
1098	28954	
1099	29005	
1100	29091	
1101	29181	
1102	29251	
1103	29299	
1104	29341	
1105	29395	
1106	29467	
1107	29543	
1108	29604	
1109	29633	
1110	29627	
1111	29595	
1112	29552	
1113	29511	
1114	29480	
1115	29462	
1116	29453	
1117	29446	
1118	29431	
1119	29406	
1120	29379	
1121	29364	
1122	29369	
1123	29386	
1124	29393	
1125	29371	
1126	29319	
1127	29256	
1128	29211	
1129	29197	
1130	29206	
1131	29211	
1132	29190	
1133	29145	
1134	29097	
1135	29070	
1136	29072	
1137	29087	
1138	29091	
1139	29070	
1140	29033	
1141	28999	
1142	28983	
1143	28982	
1144	28979	
1145	28959	
1146	28922	
1147	28888	
1148	28874	
1149	28884	
1150	28900	
1151	28894	
1152	28851	
1153	28783	
1154	28716	
1155	28681	
1156	28688	
1157	28731	
1158	28792	
1159	28856	
1160	28921	
1161	28988	
1162	29061	
1163	29137	
1164	29210	
1165	29275	
1166	29336	
1167	29398	
1168	29468	
1169	29551	
1170	29645	
1171	29745	
1172	29838	
1173	29906	
1174	29931	
1175	29904	
1176	29833	
1177	29742	
1178	29664	
1179	29624	
1180	29629	
1181	29662	
1182	29696	
1183	29709	
1184	29702	
1185	29702	
1186	29750	
1187	29884	
1188	30117	
1189	30433	
1190	30789	
1191	31137	
1192	31444	
1193	31702	
1194	31923	
1195	32122	
1196	32289	
1197	32379	
1198	32313	
1199	32017	
1200	31464	
1201	30702	
1202	29848	
1203	29039	
1204	28370	
1205	27863	
1206	27465	
1207	27100	
1208	26720	
1209	26334	
1210	25997	
1211	25768	
1212	25673	
1213	25685	
1214	25743	
1215	25783	
1216	25772	
1217	25722	
1218	25679	
1219	25701	
1220	25826	
1221	26071	
1222	26429	
1223	26883	
1224	27406	
1225	27958	
1226	28484	
1227	28923	
1228	29238	
1229	29436	
1230	29569	
1231	29703	
1232	29876	
1233	30075	
1234	30245	
1235	30335	
1236	30329	
1237	30267	
1238	30215	
1239	30230	
1240	30334	
1241	30516	
1242	30744	
1243	30991	
1244	31238	
1245	31479	
1246	31707	
1247	31919	
1248	32110	
1249	32278	
1250	32418	
1251	32524	
1252	32589	
1253	32611	
1254	32597	
1255	32563	
1256	32528	
1257	32503	
1258	32490	
1259	32480	
1260	32465	
1261	32442	
1262	32409	
1263	32368	
1264	32317	
1265	32250	
1266	32167	
1267	32078	
1268	31997	
1269	31937	
1270	31899	
1271	31871	
1272	31834	
1273	31780	
1274	31720	
1275	31681	
1276	31689	
1277	31748	
1278	31838	
1279	31921	
1280	31964	
1281	31959	
1282	31922	
1283	31880	
1284	31853	
1285	31839	
1286	31820	
1287	31781	
1288	31724	
1289	31667	
1290	31638	
1291	31647	
1292	31682	
1293	31711	
1294	31710	
1295	31675	
1296	31627	
1297	31600	
1298	31613	
1299	31659	
1300	31706	
1301	31722	
1302	31692	
1303	31630	
1304	31567	
1305	31528	
1306	31518	
1307	31522	
1308	31517	
1309	31499	
1310	31490	
1311	31523	
1312	31628	
1313	31803	
1314	32021	
1315	32236	
1316	32410	
1317	32529	
1318	32604	
1319	32654	
1320	32692	
1321	32716	
1322	32717	
1323	32689	
1324	32643	
1325	32602	
1326	32587	
1327	32605	
1328	32636	
1329	32651	
1330	32626	
1331	32557	
1332	32461	
1333	32369	
1334	32307	
1335	32289	
1336	32317	
1337	32384	
1338	32483	
1339	32607	
1340	32745	
1341	32889	
1342	33032	
1343	33171	
1344	33306	
1345	33429	
1346	33526	
1347	33570	
1348	33539	
1349	33424	
1350	33246	
1351	33046	
1352	32872	
1353	32757	
1354	32712	
1355	32723	
1356	32770	
1357	32836	
1358	32919	
1359	33023	
1360	33149	
1361	33284	
1362	33405	
1363	33490	
1364	33527	
1365	33526	
1366	33505	
1367	33483	
1368	33465	
1369	33440	
1370	33398	
1371	33338	
1372	33283	
1373	33264	
1374	33309	
1375	33419	
1376	33569	
1377	33710	
1378	33802	
1379	33823	
1380	33784	
1381	33718	
1382	33664	
1383	33646	
1384	33669	
1385	33720	
1386	33779	
1387	33832	
1388	33872	
1389	33898	
1390	33913	
1391	33918	
1392	33917	
1393	33917	
1394	33930	
1395	33972	
1396	34054	
1397	34180	
1398	34337	
1399	34499	
1400	34633	
1401	34714	
1402	34730	
1403	34694	
1404	34637	
1405	34594	
1406	34593	
1407	34639	
1408	34719	
1409	34803	
1410	34868	
1411	34902	
1412	34912	
1413	34917	
1414	34935	
1415	34970	
1416	35014	
1417	35050	
1418	35072	
1419	35083	
1420	35103	
1421	35148	
1422	35222	
1423	35313	
1424	35400	
1425	35468	
1426	35521	
1427	35575	
1428	35643	
1429	35722	
1430	35789	
1431	35815	
1432	35785	
1433	35709	
1434	35610	
1435	35515	
1436	35436	
1437	35375	
1438	35335	
1439	35332	
1440	35397	
1441	35554	
1442	35807	
1443	36126	
1444	36454	
1445	36730	
1446	36915	
1447	37008	
1448	37040	
1449	37053	
1450	37079	
1451	37123	
1452	37170	
1453	37200	
1454	37202	
1455	37178	
1456	37135	
1457	37077	
1458	37003	
1459	36916	
1460	36827	
1461	36757	
1462	36725	
1463	36733	
1464	36762	
1465	36782	
1466	36773	
1467	36740	
1468	36717	
1469	36742	
1470	36830	
1471	36961	
1472	37092	
1473	37182	
1474	37219	
1475	37227	
1476	37236	
1477	37262	
1478	37291	
1479	37289	
1480	37236	
1481	37140	
1482	37034	
1483	36953	
1484	36912	
1485	36895	
1486	36875	
1487	36836	
1488	36786	
1489	36747	
1490	36734	
1491	36740	
1492	36740	
1493	36713	
1494	36657	
1495	36590	
1496	36533	
1497	36492	
1498	36461	
1499	36431	
1500	36403	
1501	36391	
1502	36407	
1503	36450	
1504	36499	
1505	36529	
1506	36525	
1507	36491	
1508	36443	
1509	36398	
1510	36366	
1511	36351	
1512	36360	
1513	36402	
1514	36477	
1515	36563	
1516	36620	
1517	36601	
1518	36490	
1519	36306	
1520	36098	
1521	35918	
1522	35793	
1523	35723	
1524	35696	
1525	35711	
1526	35779	
1527	35917	
1528	36123	
1529	36374	
1530	36628	
1531	36843	
1532	36988	
1533	37054	
1534	37056	
1535	37024	
1536	36998	
1537	37004	
1538	37042	
1539	37086	
1540	37094	
1541	37037	
1542	36914	
1543	36760	
1544	36624	
1545	36542	
1546	36519	
1547	36533	
1548	36559	
1549	36595	
1550	36657	
1551	36767	
1552	36922	
1553	37089	
1554	37221	
1555	37286	
1556	37289	
1557	37267	
1558	37260	
1559	37280	
1560	37308	
1561	37306	
1562	37253	
1563	37161	
1564	37073	
1565	37035	
1566	37063	
1567	37133	
1568	37201	
1569	37228	
1570	37203	
1571	37145	
1572	37091	
1573	37073	
1574	37103	
1575	37168	
1576	37243	
1577	37306	
1578	37349	
1579	37376	
1580	37399	
1581	37420	
1582	37434	
1583	37434	
1584	37421	
1585	37401	
1586	37381	
1587	37364	
1588	37347	
1589	37331	
1590	37325	
1591	37342	
1592	37385	
1593	37442	
1594	37492	
1595	37513	
1596	37500	
1597	37463	
1598	37425	
1599	37402	
1600	37400	
1601	37414	
1602	37437	
1603	37464	
1604	37500	
1605	37548	
1606	37604	
1607	37654	
1608	37679	
1609	37668	
1610	37628	
1611	37579	
1612	37546	
1613	37539	
1614	37553	
1615	37571	
1616	37575	
1617	37564	
1618	37548	
1619	37536	
1620	37532	
1621	37523	
1622	37499	
1623	37459	
1624	37423	
1625	37420	
1626	37465	
1627	37549	
1628	37641	
1629	37703	
1630	37716	
1631	37681	
1632	37620	
1633	37553	
1634	37500	
1635	37479	
1636	37516	
1637	37636	
1638	37853	
1639	38150	
1640	38475	
1641	38759	
1642	38948	
1643	39029	
1644	39035	
1645	39025	
1646	39047	
1647	39117	
1648	39211	
1649	39285	
1650	39306	
1651	39271	
1652	39209	
1653	39161	
1654	39152	
1655	39182	
1656	39227	
1657	39260	
1658	39267	
1659	39251	
1660	39230	
1661	39217	
1662	39220	
1663	39237	
1664	39265	
1665	39299	
1666	39336	
1667	39370	
1668	39390	
1669	39391	
1670	39379	
1671	39372	
1672	39387	
1673	39427	
1674	39473	
1675	39502	
1676	39506	
1677	39495	
1678	39489	
1679	39496	
1680	39503	
1681	39492	
1682	39453	
1683	39398	
1684	39355	
1685	39344	
1686	39369	
1687	39413	
1688	39462	
1689	39520	
1690	39605	
1691	39729	
1692	39877	
1693	40011	
1694	40085	
1695	40084	
1696	40031	
1697	39981	
1698	39982	
1699	40047	
1700	40151	
1701	40252	
1702	40321	
1703	40359	
1704	40384	
1705	40413	
1706	40446	
1707	40469	
1708	40477	
1709	40478	
1710	40493	
1711	40540	
1712	40622	
1713	40720	
1714	40812	
1715	40886	
1716	40949	
1717	41020	
1718	41118	
1719	41241	
1720	41367	
1721	41469	
1722	41525	
1723	41537	
1724	41519	
1725	41493	
1726	41468	
1727	41443	
1728	41413	
1729	41379	
1730	41350	
1731	41343	
1732	41366	
1733	41411	
1734	41457	
1735	41478	
1736	41463	
1737	41416	
1738	41358	
1739	41307	
1740	41273	
1741	41254	
1742	41247	
1743	41251	
1744	41270	
1745	41299	
1746	41322	
1747	41317	
1748	41266	
1749	41172	
1750	41053	
1751	40929	
1752	40814	
1753	40710	
1754	40623	
1755	40563	
1756	40552	
1757	40604	
1758	40718	
1759	40881	
1760	41065	
1761	41249	
1762	41412	
1763	41542	
1764	41629	
1765	41669	
1766	41671	
1767	41650	
1768	41628	
1769	41626	
1770	41647	
1771	41685	
1772	41724	
1773	41754	
1774	41771	
1775	41782	
1776	41792	
1777	41800	
1778	41795	
1779	41770	
1780	41729	
1781	41689	
1782	41674	
1783	41699	
1784	41760	
1785	41835	
1786	41896	
1787	41927	
1788	41929	
1789	41921	
1790	41923	
1791	41946	
1792	41988	
1793	42036	
1794	42075	
1795	42095	
1796	42102	
1797	42109	
1798	42128	
1799	42155	
1800	42172	
1801	42155	
1802	42102	
1803	42036	
1804	41995	
1805	41998	
1806	42028	
1807	42040	
1808	42002	
1809	41922	
1810	41848	
1811	41828	
1812	41885	
1813	41999	
1814	42141	
1815	42295	
1816	42478	
1817	42710	
1818	42990	
1819	43280	
1820	43510	
1821	43609	
1822	43526	
1823	43237	
1824	42745	
1825	42077	
1826	41286	
1827	40452	
1828	39668	
1829	39008	
1830	38499	
1831	38118	
1832	37826	
1833	37603	
1834	37466	
1835	37454	
1836	37580	
1837	37812	
1838	38080	
1839	38317	
1840	38494	
1841	38624	
1842	38745	
1843	38884	
1844	39056	
1845	39265	
1846	39517	
1847	39815	
1848	40151	
1849	40495	
1850	40810	
1851	41070	
1852	41279	
1853	41465	
1854	41654	
1855	41850	
1856	42029	
1857	42162	
1858	42242	
1859	42292	
1860	42350	
1861	42439	
1862	42551	
1863	42643	
1864	42669	
1865	42597	
1866	42430	
1867	42201	
1868	41966	
1869	41784	
1870	41697	
1871	41712	
1872	41799	
1873	41902	
1874	41969	
1875	41979	
1876	41956	
1877	41951	
1878	42001	
1879	42099	
1880	42195	
1881	42228	
1882	42180	
1883	42088	
1884	42028	
1885	42055	
1886	42162	
1887	42283	
1888	42339	
1889	42303	
1890	42211	
1891	42135	
1892	42122	
1893	42158	
1894	42188	
1895	42163	
1896	42084	
1897	42002	
1898	41977	
1899	42031	
1900	42133	
1901	42224	
1902	42265	
1903	42263	
1904	42259	
1905	42292	
1906	42362	
1907	42435	
1908	42468	
1909	42446	
1910	42391	
1911	42341	
1912	42320	
1913	42315	
1914	42296	
1915	42244	
1916	42171	
1917	42117	
1918	42115	
1919	42158	
1920	42203	
1921	42203	
1922	42143	
1923	42058	
1924	42012	
1925	42050	
1926	42172	
1927	42337	
1928	42500	
1929	42643	
1930	42780	
1931	42934	
1932	43102	
1933	43245	
1934	43311	
1935	43274	
1936	43160	
1937	43031	
1938	42952	
1939	42946	
1940	42995	
1941	43053	
1942	43085	
1943	43084	
1944	43066	
1945	43056	
1946	43070	
1947	43107	
1948	43156	
1949	43200	
1950	43231	
1951	43253	
1952	43276	
1953	43308	
1954	43348	
1955	43386	
1956	43409	
1957	43415	
1958	43416	
1959	43431	
1960	43473	
1961	43537	
1962	43596	
1963	43623	
1964	43607	
1965	43571	
1966	43554	
1967	43589	
1968	43672	
1969	43767	
1970	43834	
1971	43859	
1972	43861	
1973	43865	
1974	43876	
1975	43871	
1976	43825	
1977	43739	
1978	43652	
1979	43615	
1980	43650	
1981	43738	
1982	43830	
1983	43883	
1984	43891	
1985	43874	
1986	43866	
1987	43879	
1988	43905	
1989	43927	
1990	43937	
1991	43949	
1992	43985	
1993	44062	
1994	44179	
1995	44318	
1996	44454	
1997	44573	
1998	44669	
1999	44742	
2000	44785	
2001	44780	
2002	44714	
2003	44589	
2004	44438	
2005	44307	
2006	44236	
2007	44229	
2008	44259	
2009	44285	
2010	44284	
2011	44269	
2012	44276	
2013	44325	
2014	44404	
2015	44469	
2016	44477	
2017	44420	
2018	44336	
2019	44281	
2020	44288	
2021	44345	
2022	44400	
2023	44410	
2024	44369	
2025	44315	
2026	44295	
2027	44327	
2028	44390	
2029	44443	
2030	44458	
2031	44440	
2032	44420	
2033	44428	
2034	44471	
2035	44528	
2036	44566	
2037	44561	
2038	44518	
2039	44466	
2040	44445	
2041	44480	
2042	44564	
2043	44663	
2044	44738	
2045	44767	
2046	44762	
2047	44760	
2048	44802	
2049	44900	
2050	45025	
2051	45127	
2052	45168	
2053	45156	
2054	45139	
2055	45166	
2056	45240	
2057	45320	
2058	45357	
2059	45343	
2060	45315	
2061	45327	
2062	45395	
2063	45484	
2064	45538	
2065	45530	
2066	45488	
2067	45471	
2068	45517	
2069	45614	
2070	45707	
2071	45747	
2072	45729	
2073	45696	
2074	45697	
2075	45745	
2076	45808	
2077	45836	
2078	45803	
2079	45730	
2080	45666	
2081	45648	
2082	45672	
2083	45701	
2084	45696	
2085	45651	
2086	45594	
2087	45560	
2088	45557	
2089	45567	
2090	45562	
2091	45539	
2092	45518	
2093	45529	
2094	45577	
2095	45642	
2096	45692	
2097	45711	
2098	45707	
2099	45697	
2100	45693	
2101	45694	
2102	45697	
2103	45705	
2104	45717	
2105	45722	
2106	45703	
2107	45653	
2108	45588	
2109	45539	
2110	45522	
2111	45518	
2112	45486	
2113	45406	
2114	45300	
2115	45223	
2116	45204	
2117	45222	
2118	45219	
2119	45153	
2120	45042	
2121	44945	
2122	44916	
2123	44949	
2124	44991	
2125	44992	
2126	44948	
2127	44907	
2128	44913	
2129	44966	
2130	45015	
2131	45002	
2132	44917	
2133	44804	
2134	44730	
2135	44722	
2136	44751	
2137	44754	
2138	44696	
2139	44602	
2140	44537	
2141	44547	
2142	44617	
2143	44674	
2144	44650	
2145	44540	
2146	44419	
2147	44379	
2148	44460	
2149	44609	
2150	44719	
2151	44708	
2152	44585	
2153	44446	
2154	44393	
2155	44462	
2156	44596	
2157	44694	
2158	44697	
2159	44633	
2160	44587	
2161	44621	
2162	44728	
2163	44834	
2164	44869	
2165	44824	
2166	44758	
2167	44740	
2168	44790	
2169	44862	
2170	44885	
2171	44830	
2172	44735	
2173	44672	
2174	44689	
2175	44771	
2176	44861	
2177	44903	
2178	44884	
2179	44840	
2180	44817	
2181	44843	
2182	44903	
2183	44961	
2184	44990	
2185	44984	
2186	44967	
2187	44969	
2188	45003	
2189	45060	
2190	45106	
2191	45109	
2192	45058	
2193	44978	
2194	44915	
2195	44906	
2196	44949	
2197	45002	
2198	45016	
2199	44971	
2200	44897	
2201	44848	
2202	44859	
2203	44915	
2204	44974	
2205	44999	
2206	44991	
2207	44977	
2208	44982	
2209	45006	
2210	45024	
2211	45020	
2212	45002	
2213	44994	
2214	45007	
2215	45032	
2216	45044	
2217	45028	
2218	44996	
2219	44971	
2220	44964	
2221	44965	
2222	44955	
2223	44929	
2224	44907	
2225	44914	
2226	44957	
2227	45016	
2228	45059	
2229	45067	
2230	45044	
2231	45010	
2232	44987	
2233	44989	
2234	45012	
2235	45043	
2236	45064	
2237	45057	
2238	45019	
2239	44964	
2240	44920	
2241	44913	
2242	44949	
2243	45013	
2244	45075	
2245	45113	
2246	45119	
2247	45111	
2248	45112	
2249	45137	
2250	45181	
2251	45223	
2252	45248	
2253	45252	
2254	45249	
2255	45252	
2256	45262	
2257	45265	
2258	45245	
2259	45202	
2260	45157	
2261	45142	
2262	45168	
2263	45214	
2264	45241	
2265	45223	
2266	45181	
2267	45164	
2268	45216	
2269	45326	
2270	45433	
2271	45468	
2272	45411	
2273	45309	
2274	45247	
2275	45279	
2276	45385	
2277	45491	
2278	45524	
2279	45475	
2280	45402	
2281	45382	
2282	45446	
2283	45556	
2284	45640	
2285	45654	
2286	45620	
2287	45602	
2288	45647	
2289	45741	
2290	45820	
2291	45825	
2292	45763	
2293	45699	
2294	45704	
2295	45792	
2296	45902	
2297	45949	
2298	45896	
2299	45787	
2300	45713	
2301	45732	
2302	45822	
2303	45896	
2304	45879	
2305	45772	
2306	45659	
2307	45635	
2308	45728	
2309	45870	
2310	45952	
2311	45912	
2312	45788	
2313	45688	
2314	45697	
2315	45804	
2316	45909	
2317	45911	
2318	45803	
2319	45680	
2320	45660	
2321	45779	
2322	45961	
2323	46087	
2324	46097	
2325	46036	
2326	46012	
2327	46098	
2328	46270	
2329	46432	
2330	46500	
2331	46470	
2332	46427	
2333	46473	
2334	46641	
2335	46869	
2336	47043	
2337	47085	
2338	47013	
2339	46917	
2340	46888	
2341	46938	
2342	47010	
2343	47034	
2344	46997	
2345	46956	
2346	46978	
2347	47070	
2348	47165	
2349	47183	
2350	47105	
2351	47001	
2352	46967	
2353	47039	
2354	47160	
2355	47229	
2356	47196	
2357	47104	
2358	47049	
2359	47095	
2360	47215	
2361	47326	
2362	47362	
2363	47331	
2364	47299	
2365	47318	
2366	47382	
2367	47440	
2368	47444	
2369	47396	
2370	47337	
2371	47305	
2372	47305	
2373	47314	
2374	47305	
2375	47279	
2376	47254	
2377	47254	
2378	47278	
2379	47304	
2380	47304	
2381	47268	
2382	47212	
2383	47166	
2384	47153	
2385	47170	
2386	47190	
2387	47181	
2388	47136	
2389	47079	
2390	47055	
2391	47086	
2392	47152	
2393	47200	
2394	47183	
2395	47105	
2396	47021	
2397	46992	
2398	47032	
2399	47097	
2400	47123	
2401	47088	
2402	47028	
2403	47007	
2404	47055	
2405	47138	
2406	47186	
2407	47155	
2408	47062	
2409	46969	
2410	46931	
2411	46952	
2412	46987	
2413	46992	
2414	46961	
2415	46935	
2416	46961	
2417	47049	
2418	47155	
2419	47222	
2420	47220	
2421	47179	
2422	47160	
2423	47210	
2424	47324	
2425	47446	
2426	47505	
2427	47471	
2428	47367	
2429	47256	
2430	47187	
2431	47176	
2432	47207	
2433	47278	
2434	47416	
2435	47663	
2436	48031	
2437	48474	
2438	48914	
2439	49289	
2440	49589	
2441	49839	
2442	50041	
2443	50132	
2444	49997	
2445	49543	
2446	48776	
2447	47828	
2448	46894	
2449	46131	
2450	45584	
2451	45175	
2452	44778	
2453	44295	
2454	43715	
2455	43114	
2456	42594	
2457	42221	
2458	41991	
2459	41843	
2460	41711	
2461	41564	
2462	41416	
2463	41298	
2464	41233	
2465	41232	
2466	41324	
2467	41551	
2468	41955	
2469	42526	
2470	43185	
2471	43807	
2472	44284	
2473	44590	
2474	44790	
2475	44994	
2476	45284	
2477	45670	
2478	46100	
2479	46508	
2480	46857	
2481	47148	
2482	47391	
2483	47583	
2484	47709	
2485	47768	
2486	47790	
2487	47827	
2488	47907	
2489	48008	
2490	48070	
2491	48046	
2492	47946	
2493	47842	
2494	47810	
2495	47875	
2496	47992	
2497	48089	
2498	48127	
2499	48128	
2500	48147	
2501	48218	
2502	48321	
2503	48404	
2504	48430	
2505	48417	
2506	48416	
2507	48468	
2508	48568	
2509	48669	
2510	48720	
2511	48704	
2512	48640	
2513	48568	
2514	48519	
2515	48498	
2516	48489	
2517	48464	
2518	48415	
2519	48357	
2520	48323	
2521	48336	
2522	48381	
2523	48418	
2524	48411	
2525	48359	
2526	48295	
2527	48260	
2528	48266	
2529	48290	
2530	48299	
2531	48274	
2532	48224	
2533	48168	
2534	48119	
2535	48079	
2536	48047	
2537	48030	
2538	48038	
2539	48067	
2540	48104	
2541	48134	
2542	48164	
2543	48215	
2544	48302	
2545	48411	
2546	48503	
2547	48546	
2548	48545	
2549	48539	
2550	48563	
2551	48618	
2552	48666	
2553	48670	
2554	48627	
2555	48563	
2556	48510	
2557	48478	
2558	48459	
2559	48442	
2560	48427	
2561	48423	
2562	48433	
2563	48446	
2564	48453	
2565	48457	
2566	48469	
2567	48491	
2568	48504	
2569	48483	
2570	48425	
2571	48362	
2572	48344	
2573	48399	
2574	48500	
2575	48585	
2576	48605	
2577	48559	
2578	48494	
2579	48469	
2580	48505	
2581	48575	
2582	48630	
2583	48643	
2584	48627	
2585	48619	
2586	48645	
2587	48692	
2588	48723	
2589	48710	
2590	48657	
2591	48602	
2592	48586	
2593	48623	
2594	48686	
2595	48736	
2596	48748	
2597	48726	
2598	48696	
2599	48684	
2600	48699	
2601	48731	
2602	48762	
2603	48784	
2604	48805	
2605	48838	
2606	48889	
2607	48952	
2608	49010	
2609	49048	
2610	49070	
2611	49090	
2612	49122	
2613	49165	
2614	49205	
2615	49227	
2616	49232	
2617	49242	
2618	49289	
2619	49386	
2620	49513	
2621	49627	
2622	49690	
2623	49705	
2624	49707	
2625	49737	
2626	49810	
2627	49901	
2628	49968	
2629	49989	
2630	49978	
2631	49979	
2632	50031	
2633	50138	
2634	50258	
2635	50333	
2636	50333	
2637	50283	
2638	50251	
2639	50295	
2640	50414	
2641	50550	
2642	50636	
2643	50654	
2644	50650	
2645	50685	
2646	50782	
2647	50900	
2648	50968	
2649	50953	
2650	50884	
2651	50836	
2652	50867	
2653	50969	
2654	51077	
2655	51115	
2656	51065	
2657	50983	
2658	50958	
2659	51031	
2660	51163	
2661	51259	
2662	51255	
2663	51176	
2664	51120	
2665	51175	
2666	51343	
2667	51526	
2668	51611	
2669	51563	
2670	51458	
2671	51421	
2672	51520	
2673	51708	
2674	51863	
2675	51894	
2676	51815	
2677	51730	
2678	51744	
2679	51881	
2680	52062	
2681	52182	
2682	52188	
2683	52122	
2684	52073	
2685	52102	
2686	52193	
2687	52278	
2688	52300	
2689	52259	
2690	52207	
2691	52198	
2692	52240	
2693	52293	
2694	52312	
2695	52277	
2696	52216	
2697	52174	
2698	52176	
2699	52211	
2700	52236	
2701	52219	
2702	52167	
2703	52118	
2704	52111	
2705	52149	
2706	52194	
2707	52201	
2708	52153	
2709	52078	
2710	52025	
2711	52024	
2712	52063	
2713	52106	
2714	52115	
2715	52080	
2716	52018	
2717	51960	
2718	51931	
2719	51932	
2720	51945	
2721	51941	
2722	51902	
2723	51840	
2724	51789	
2725	51785	
2726	51837	
2727	51912	
2728	51955	
2729	51927	
2730	51838	
2731	51740	
2732	51686	
2733	51686	
2734	51705	
2735	51696	
2736	51646	
2737	51584	
2738	51549	
2739	51552	
2740	51557	
2741	51515	
2742	51410	
2743	51271	
2744	51158	
2745	51105	
2746	51096	
2747	51078	
2748	51011	
2749	50901	
2750	50794	
2751	50736	
2752	50736	
2753	50759	
2754	50764	
2755	50736	
2756	50699	
2757	50686	
2758	50706	
2759	50730	
2760	50723	
2761	50672	
2762	50607	
2763	50571	
2764	50585	
2765	50634	
2766	50678	
2767	50688	
2768	50667	
2769	50640	
2770	50630	
2771	50636	
2772	50639	
2773	50623	
2774	50591	
2775	50559	
2776	50542	
2777	50536	
2778	50529	
2779	50512	
2780	50494	
2781	50491	
2782	50510	
2783	50537	
2784	50554	
2785	50551	
2786	50545	
2787	50558	
2788	50597	
2789	50647	
2790	50678	
2791	50676	
2792	50650	
2793	50623	
2794	50612	
2795	50609	
2796	50598	
2797	50572	
2798	50547	
2799	50544	
2800	50574	
2801	50623	
2802	50669	
2803	50697	
2804	50717	
2805	50746	
2806	50798	
2807	50864	
2808	50922	
2809	50952	
2810	50947	
2811	50919	
2812	50882	
2813	50849	
2814	50825	
2815	50810	
2816	50809	
2817	50825	
2818	50853	
2819	50881	
2820	50893	
2821	50888	
2822	50881	
2823	50891	
2824	50925	
2825	50971	
2826	51007	
2827	51027	
2828	51047	
2829	51088	
2830	51152	
2831	51215	
2832	51248	
2833	51243	
2834	51221	
2835	51209	
2836	51220	
2837	51235	
2838	51235	
2839	51218	
2840	51206	
2841	51217	
2842	51247	
2843	51265	
2844	51251	
2845	51220	
2846	51208	
2847	51239	
2848	51297	
2849	51340	
2850	51339	
2851	51315	
2852	51314	
2853	51372	
2854	51476	
2855	51576	
2856	51632	
2857	51641	
2858	51637	
2859	51656	
2860	51702	
2861	51757	
2862	51799	
2863	51824	
2864	51845	
2865	51867	
2866	51891	
2867	51916	
2868	51953	
2869	52009	
2870	52076	
2871	52121	
2872	52115	
2873	52060	
2874	52002	
2875	51992	
2876	52045	
2877	52123	
2878	52161	
2879	52122	
2880	52034	
2881	51964	
2882	51967	
2883	52038	
2884	52113	
2885	52131	
2886	52082	
2887	52018	
2888	52013	
2889	52093	
2890	52220	
2891	52320	
2892	52342	
2893	52296	
2894	52233	
2895	52199	
2896	52200	
2897	52202	
2898	52172	
2899	52104	
2900	52024	
2901	51969	
2902	51954	
2903	51967	
2904	51974	
2905	51950	
2906	51893	
2907	51828	
2908	51788	
2909	51791	
2910	51824	
2911	51859	
2912	51864	
2913	51835	
2914	51792	
2915	51770	
2916	51791	
2917	51845	
2918	51893	
2919	51893	
2920	51836	
2921	51762	
2922	51734	
2923	51790	
2924	51912	
2925	52033	
2926	52086	
2927	52054	
2928	51975	
2929	51910	
2930	51888	
2931	51894	
2932	51893	
2933	51865	
2934	51823	
2935	51792	
2936	51783	
2937	51780	
2938	51760	
2939	51711	
2940	51653	
2941	51625	
2942	51657	
2943	51747	
2944	51859	
2945	51945	
2946	51977	
2947	51968	
2948	51961	
2949	51992	
2950	52061	
2951	52128	
2952	52152	
2953	52128	
2954	52097	
2955	52109	
2956	52184	
2957	52294	
2958	52380	
2959	52409	
2960	52393	
2961	52381	
2962	52414	
2963	52487	
2964	52554	
2965	52572	
2966	52540	
2967	52499	
2968	52500	
2969	52557	
2970	52634	
2971	52677	
2972	52653	
2973	52581	
2974	52513	
2975	52500	
2976	52548	
2977	52624	
2978	52677	
2979	52681	
2980	52658	
2981	52646	
2982	52671	
2983	52724	
2984	52766	
2985	52766	
2986	52729	
2987	52687	
2988	52677	
2989	52707	
2990	52753	
2991	52780	
2992	52768	
2993	52728	
2994	52682	
2995	52646	
2996	52620	
2997	52592	
2998	52558	
2999	52523	
3000	52497	
3001	52494	
3002	52516	
3003	52558	
3004	52606	
3005	52639	
3006	52640	
3007	52609	
3008	52565	
3009	52537	
3010	52539	
3011	52556	
3012	52555	
3013	52509	
3014	52430	
3015	52365	
3016	52356	
3017	52408	
3018	52480	
3019	52518	
3020	52503	
3021	52467	
3022	52457	
3023	52494	
3024	52551	
3025	52577	
3026	52552	
3027	52508	
3028	52502	
3029	52562	
3030	52650	
3031	52692	
3032	52638	
3033	52515	
3034	52406	
3035	52385	
3036	52448	
3037	52518	
3038	52510	
3039	52408	
3040	52280	
3041	52216	
3042	52255	
3043	52348	
3044	52412	
3045	52399	
3046	52333	
3047	52280	
3048	52279	
3049	52316	
3050	52344	
3051	52329	
3052	52280	
3053	52232	
3054	52217	
3055	52242	
3056	52297	
3057	52371	
3058	52475	
3059	52634	
3060	52866	
3061	53166	
3062	53498	
3063	53813	
3064	54072	
3065	54256	
3066	54360	
3067	54369	
3068	54235	
3069	53887	
3070	53270	
3071	52400	
3072	51385	
3073	50387	
3074	49541	
3075	48888	
3076	48359	
3077	47848	
3078	47299	
3079	46751	
3080	46311	
3081	46061	
3082	46000	
3083	46035	
3084	46053	
3085	45994	
3086	45881	
3087	45790	
3088	45786	
3089	45894	
3090	46097	
3091	46374	
3092	46716	
3093	47127	
3094	47601	
3095	48114	
3096	48631	
3097	49122	
3098	49574	
3099	49983	
3100	50349	
3101	50676	
3102	50976	
3103	51264	
3104	51547	
3105	51807	
3106	52012	
3107	52137	
3108	52189	
3109	52211	
3110	52253	
3111	52334	
3112	52430	
3113	52490	
3114	52480	
3115	52412	
3116	52336	
3117	52299	
3118	52315	
3119	52359	
3120	52399	
3121	52424	
3122	52445	
3123	52477	
3124	52521	
3125	52567	
3126	52606	
3127	52651	
3128	52721	
3129	52821	
3130	52922	
3131	52981	
3132	52971	
3133	52916	
3134	52868	
3135	52872	
3136	52927	
3137	52985	
3138	52991	
3139	52927	
3140	52830	
3141	52761	
3142	52752	
3143	52786	
3144	52812	
3145	52795	
3146	52738	
3147	52685	
3148	52678	
3149	52727	
3150	52795	
3151	52829	
3152	52805	
3153	52748	
3154	52719	
3155	52759	
3156	52853	
3157	52938	
3158	52958	
3159	52913	
3160	52859	
3161	52854	
3162	52911	
3163	52987	
3164	53026	
3165	53012	
3166	52979	
3167	52977	
3168	53022	
3169	53078	
3170	53088	
3171	53031	
3172	52941	
3173	52887	
3174	52911	
3175	52993	
3176	53063	
3177	53063	
3178	52993	
3179	52910	
3180	52882	
3181	52936	
3182	53042	
3183	53143	
3184	53196	
3185	53191	
3186	53148	
3187	53096	
3188	53056	
3189	53039	
3190	53045	
3191	53062	
3192	53069	
3193	53047	
3194	52999	
3195	52958	
3196	52958	
3197	53001	
3198	53048	
3199	53052	
3200	53004	
3201	52950	
3202	52953	
3203	53033	
3204	53140	
3205	53201	
3206	53175	
3207	53093	
3208	53024	
3209	53018	
3210	53065	
3211	53109	
3212	53107	
3213	53062	
3214	53023	
3215	53038	
3216	53108	
3217	53186	
3218	53217	
3219	53187	
3220	53138	
3221	53134	
3222	53205	
3223	53320	
3224	53415	
3225	53442	
3226	53411	
3227	53375	
3228	53387	
3229	53456	
3230	53534	
3231	53565	
3232	53527	
3233	53457	
3234	53416	
3235	53444	
3236	53525	
3237	53603	
3238	53628	
3239	53603	
3240	53573	
3241	53587	
3242	53651	
3243	53718	
3244	53732	
3245	53678	
3246	53595	
3247	53550	
3248	53578	
3249	53657	
3250	53725	
3251	53731	
3252	53680	
3253	53624	
3254	53612	
3255	53651	
3256	53697	
3257	53704	
3258	53658	
3259	53599	
3260	53579	
3261	53625	
3262	53708	
3263	53773	
3264	53780	
3265	53742	
3266	53708	
3267	53723	
3268	53791	
3269	53872	
3270	53918	
3271	53921	
3272	53913	
3273	53940	
3274	54019	
3275	54118	
3276	54192	
3277	54218	
3278	54213	
3279	54218	
3280	54254	
3281	54305	
3282	54341	
3283	54348	
3284	54349	
3285	54378	
3286	54447	
3287	54524	
3288	54558	
3289	54524	
3290	54451	
3291	54401	
3292	54423	
3293	54510	
3294	54602	
3295	54632	
3296	54577	
3297	54480	
3298	54421	
3299	54455	
3300	54563	
3301	54669	
3302	54692	
3303	54621	
3304	54517	
3305	54469	
3306	54516	
3307	54618	
3308	54688	
3309	54664	
3310	54560	
3311	54453	
3312	54422	
3313	54489	
3314	54596	
3315	54653	
3316	54608	
3317	54489	
3318	54386	
3319	54375	
3320	54462	
3321	54568	
3322	54601	
3323	54527	
3324	54406	
3325	54345	
3326	54401	
3327	54536	
3328	54642	
3329	54633	
3330	54520	
3331	54397	
3332	54360	
3333	54421	
3334	54499	
3335	54487	
3336	54353	
3337	54165	
3338	54045	
3339	54066	
3340	54188	
3341	54294	
3342	54283	
3343	54150	
3344	53990	
3345	53920	
3346	53979	
3347	54099	
3348	54159	
3349	54085	
3350	53910	
3351	53747	
3352	53686	
3353	53728	
3354	53781	
3355	53745	
3356	53596	
3357	53406	
3358	53277	
3359	53263	
3360	53326	
3361	53372	
3362	53326	
3363	53191	
3364	53039	
3365	52949	
3366	52946	
3367	52984	
3368	52988	
3369	52924	
3370	52824	
3371	52759	
3372	52765	
3373	52812	
3374	52821	
3375	52739	
3376	52586	
3377	52447	
3378	52398	
3379	52447	
3380	52525	
3381	52550	
3382	52493	
3383	52387	
3384	52300	
3385	52269	
3386	52278	
3387	52277	
3388	52225	
3389	52131	
3390	52043	
3391	52007	
3392	52035	
3393	52084	
3394	52096	
3395	52043	
3396	51953	
3397	51893	
3398	51911	
3399	52003	
3400	52110	
3401	52166	
3402	52146	
3403	52087	
3404	52052	
3405	52086	
3406	52175	
3407	52255	
3408	52265	
3409	52197	
3410	52113	
3411	52096	
3412	52178	
3413	52313	
3414	52404	
3415	52385	
3416	52279	
3417	52177	
3418	52167	
3419	52258	
3420	52374	
3421	52421	
3422	52365	
3423	52262	
3424	52207	
3425	52259	
3426	52396	
3427	52536	
3428	52603	
3429	52579	
3430	52512	
3431	52469	
3432	52487	
3433	52555	
3434	52632	
3435	52679	
3436	52689	
3437	52679	
3438	52679	
3439	52705	
3440	52750	
3441	52791	
3442	52808	
3443	52800	
3444	52789	
3445	52803	
3446	52851	
3447	52917	
3448	52969	
3449	52985	
3450	52970	
3451	52952	
3452	52959	
3453	52998	
3454	53054	
3455	53096	
3456	53099	
3457	53067	
3458	53026	
3459	53013	
3460	53045	
3461	53106	
3462	53165	
3463	53198	
3464	53215	
3465	53244	
3466	53301	
3467	53370	
3468	53414	
3469	53406	
3470	53359	
3471	53318	
3472	53326	
3473	53384	
3474	53454	
3475	53489	
3476	53474	
3477	53432	
3478	53402	
3479	53402	
3480	53418	
3481	53427	
3482	53424	
3483	53430	
3484	53470	
3485	53547	
3486	53633	
3487	53688	
3488	53697	
3489	53677	
3490	53663	
3491	53673	
3492	53698	
3493	53715	
3494	53713	
3495	53700	
3496	53692	
3497	53695	
3498	53695	
3499	53682	
3500	53668	
3501	53678	
3502	53726	
3503	53791	
3504	53825	
3505	53789	
3506	53688	
3507	53576	
3508	53518	
3509	53538	
3510	53601	
3511	53642	
3512	53618	
3513	53543	
3514	53470	
3515	53443	
3516	53465	
3517	53499	
3518	53510	
3519	53490	
3520	53460	
3521	53448	
3522	53460	
3523	53482	
3524	53491	
3525	53481	
3526	53464	
3527	53458	
3528	53471	
3529	53493	
3530	53503	
3531	53485	
3532	53442	
3533	53389	
3534	53357	
3535	53357	
3536	53386	
3537	53427	
3538	53464	
3539	53495	
3540	53526	
3541	53559	
3542	53585	
3543	53599	
3544	53602	
3545	53604	
3546	53612	
3547	53626	
3548	53644	
3549	53666	
3550	53693	
3551	53718	
3552	53730	
3553	53721	
3554	53696	
3555	53674	
3556	53670	
3557	53680	
3558	53684	
3559	53660	
3560	53608	
3561	53553	
3562	53528	
3563	53546	
3564	53588	
3565	53613	
3566	53594	
3567	53549	
3568	53531	
3569	53580	
3570	53682	
3571	53765	
3572	53763	
3573	53682	
3574	53606	
3575	53631	
3576	53772	
3577	53938	
3578	54007	
3579	53937	
3580	53811	
3581	53774	
3582	53903	
3583	54141	
3584	54338	
3585	54371	
3586	54248	
3587	54091	
3588	54035	
3589	54116	
3590	54249	
3591	54306	
3592	54226	
3593	54063	
3594	53935	
3595	53925	
3596	54014	
3597	54101	
3598	54095	
3599	53994	
3600	53882	
3601	53858	
3602	53941	
3603	54059	
3604	54107	
3605	54039	
3606	53910	
3607	53820	
3608	53824	
3609	53889	
3610	53924	
3611	53864	
3612	53725	
3613	53580	
3614	53497	
3615	53483	
3616	53485	
3617	53442	
3618	53340	
3619	53220	
3620	53141	
3621	53129	
3622	53158	
3623	53170	
3624	53125	
3625	53035	
3626	52951	
3627	52919	
3628	52940	
3629	52964	
3630	52934	
3631	52842	
3632	52739	
3633	52694	
3634	52731	
3635	52800	
3636	52818	
3637	52740	
3638	52605	
3639	52501	
3640	52495	
3641	52573	
3642	52656	
3643	52674	
3644	52620	
3645	52557	
3646	52555	
3647	52627	
3648	52714	
3649	52738	
3650	52671	
3651	52563	
3652	52498	
3653	52525	
3654	52614	
3655	52685	
3656	52668	
3657	52566	
3658	52448	
3659	52398	
3660	52445	
3661	52536	
3662	52579	
3663	52520	
3664	52388	
3665	52278	
3666	52276	
3667	52387	
3668	52526	
3669	52581	
3670	52501	
3671	52335	
3672	52190	
3673	52154	
3674	52221	
3675	52305	
3676	52315	
3677	52233	
3678	52141	
3679	52154	
3680	52331	
3681	52616	
3682	52885	
3683	53046	
3684	53115	
3685	53197	
3686	53388	
3687	53674	
3688	53921	
3689	53959	
3690	53696	
3691	53171	
3692	52500	
3693	51792	
3694	51084	
3695	50357	
3696	49607	
3697	48882	
3698	48266	
3699	47824	
3700	47561	
3701	47428	
3702	47375	
3703	47390	
3704	47484	
3705	47660	
3706	47872	
3707	48047	
3708	48129	
3709	48124	
3710	48104	
3711	48167	
3712	48372	
3713	48708	
3714	49107	
3715	49492	
3716	49824	
3717	50118	
3718	50412	
3719	50732	
3720	51061	
3721	51356	
3722	51582	
3723	51736	
3724	51845	
3725	51933	
3726	52006	
3727	52050	
3728	52054	
3729	52032	
3730	52010	
3731	52017	
3732	52053	
3733	52094	
3734	52110	
3735	52085	
3736	52031	
3737	51977	
3738	51951	
3739	51962	
3740	51998	
3741	52036	
3742	52062	
3743	52076	
3744	52087	
3745	52106	
3746	52138	
3747	52182	
3748	52227	
3749	52258	
3750	52265	
3751	52259	
3752	52265	
3753	52303	
3754	52360	
3755	52394	
3756	52364	
3757	52271	
3758	52163	
3759	52096	
3760	52099	
3761	52144	
3762	52180	
3763	52175	
3764	52141	
3765	52114	
3766	52115	
3767	52132	
3768	52127	
3769	52080	
3770	52005	
3771	51949	
3772	51941	
3773	51974	
3774	52000	
3775	51980	
3776	51917	
3777	51855	
3778	51840	
3779	51881	
3780	51940	
3781	51966	
3782	51943	
3783	51899	
3784	51880	
3785	51907	
3786	51958	
3787	51994	
3788	51995	
3789	51976	
3790	51965	
3791	51975	
3792	51995	
3793	52005	
3794	51996	
3795	51976	
3796	51958	
3797	51944	
3798	51927	
3799	51904	
3800	51883	
3801	51874	
3802	51883	
3803	51894	
3804	51890	
3805	51868	
3806	51850	
3807	51866	
3808	51926	
3809	52008	
3810	52069	
3811	52080	
3812	52047	
3813	52007	
3814	51999	
3815	52035	
3816	52092	
3817	52133	
3818	52137	
3819	52117	
3820	52103	
3821	52117	
3822	52147	
3823	52162	
3824	52142	
3825	52102	
3826	52084	
3827	52112	
3828	52170	
3829	52211	
3830	52201	
3831	52154	
3832	52114	
3833	52120	
3834	52164	
3835	52206	
3836	52211	
3837	52178	
3838	52137	
3839	52117	
3840	52116	
3841	52109	
3842	52085	
3843	52060	
3844	52066	
3845	52114	
3846	52178	
3847	52207	
3848	52175	
3849	52106	
3850	52058	
3851	52075	
3852	52154	
3853	52249	
3854	52304	
3855	52300	
3856	52258	
3857	52223	
3858	52226	
3859	52260	
3860	52292	
3861	52291	
3862	52255	
3863	52211	
3864	52188	
3865	52196	
3866	52213	
3867	52214	
3868	52195	
3869	52173	
3870	52172	
3871	52197	
3872	52236	
3873	52268	
3874	52282	
3875	52285	
3876	52287	
3877	52298	
3878	52319	
3879	52355	
3880	52405	
3881	52462	
3882	52504	
3883	52511	
3884	52482	
3885	52445	
3886	52435	
3887	52464	
3888	52515	
3889	52554	
3890	52563	
3891	52558	
3892	52566	
3893	52599	
3894	52645	
3895	52679	
3896	52691	
3897	52696	
3898	52718	
3899	52773	
3900	52850	
3901	52925	
3902	52972	
3903	52981	
3904	52963	
3905	52943	
3906	52944	
3907	52970	
3908	52998	
3909	52994	
3910	52944	
3911	52873	
3912	52826	
3913	52836	
3914	52891	
3915	52943	
3916	52949	
3917	52909	
3918	52862	
3919	52856	
3920	52897	
3921	52953	
3922	52980	
3923	52964	
3924	52931	
3925	52918	
3926	52936	
3927	52969	
3928	52991	
3929	52993	
3930	52983	
3931	52968	
3932	52945	
3933	52909	
3934	52871	
3935	52859	
3936	52889	
3937	52943	
3938	52976	
3939	52954	
3940	52890	
3941	52837	
3942	52847	
3943	52912	
3944	52973	
3945	52964	
3946	52879	
3947	52783	
3948	52754	
3949	52809	
3950	52879	
3951	52870	
3952	52750	
3953	52581	
3954	52477	
3955	52498	
3956	52603	
3957	52680	
3958	52640	
3959	52495	
3960	52338	
3961	52264	
3962	52289	
3963	52339	
3964	52321	
3965	52208	
3966	52057	
3967	51959	
3968	51959	
3969	52010	
3970	52026	
3971	51946	
3972	51800	
3973	51676	
3974	51642	
3975	51687	
3976	51722	
3977	51664	
3978	51510	
3979	51344	
3980	51271	
3981	51322	
3982	51420	
3983	51448	
3984	51340	
3985	51146	
3986	50988	
3987	50959	
3988	51047	
3989	51145	
3990	51135	
3991	50986	
3992	50773	
3993	50620	
3994	50598	
3995	50678	
3996	50754	
3997	50735	
3998	50617	
3999	50483	
4000	50433	
4001	50495	
4002	50607	
4003	50666	
4004	50620	
4005	50507	
4006	50414	
4007	50404	
4008	50463	
4009	50515	
4010	50491	
4011	50387	
4012	50268	
4013	50211	
4014	50241	
4015	50312	
4016	50344	
4017	50292	
4018	50181	
4019	50089	
4020	50082	
4021	50158	
4022	50252	
4023	50281	
4024	50220	
4025	50119	
4026	50062	
4027	50094	
4028	50185	
4029	50255	
4030	50248	
4031	50176	
4032	50101	
4033	50080	
4034	50114	
4035	50156	
4036	50165	
4037	50138	
4038	50116	
4039	50134	
4040	50190	
4041	50248	
4042	50268	
4043	50242	
4044	50201	
4045	50194	
4046	50247	
4047	50346	
4048	50442	
4049	50488	
4050	50472	
4051	50429	
4052	50410	
4053	50443	
4054	50508	
4055	50556	
4056	50554	
4057	50516	
4058	50490	
4059	50512	
4060	50573	
4061	50619	
4062	50605	
4063	50536	
4064	50462	
4065	50438	
4066	50481	
4067	50556	
4068	50616	
4069	50641	
4070	50642	
4071	50647	
4072	50667	
4073	50692	
4074	50709	
4075	50713	
4076	50713	
4077	50718	
4078	50731	
4079	50745	
4080	50753	
4081	50753	
4082	50751	
4083	50753	
4084	50766	
4085	50787	
4086	50811	
4087	50830	
4088	50841	
4089	50853	
4090	50875	
4091	50908	
4092	50941	
4093	50961	
4094	50961	
4095	50948	
4096	50937	
4097	50936	
4098	50936	
4099	50924	
4100	50894	
4101	50855	
4102	50821	
4103	50799	
4104	50785	
4105	50773	
4106	50765	
4107	50771	
4108	50795	
4109	50825	
4110	50839	
4111	50825	
4112	50785	
4113	50734	
4114	50690	
4115	50659	
4116	50640	
4117	50630	
4118	50629	
4119	50637	
4120	50646	
4121	50643	
4122	50622	
4123	50591	
4124	50570	
4125	50577	
4126	50608	
4127	50641	
4128	50651	
4129	50629	
4130	50593	
4131	50566	
4132	50556	
4133	50541	
4134	50490	
4135	50399	
4136	50298	
4137	50241	
4138	50257	
4139	50327	
4140	50394	
4141	50403	
4142	50349	
4143	50278	
4144	50250	
4145	50291	
4146	50375	
4147	50443	
4148	50455	
4149	50413	
4150	50358	
4151	50331	
4152	50343	
4153	50367	
4154	50371	
4155	50338	
4156	50289	
4157	50254	
4158	50251	
4159	50271	
4160	50288	
4161	50284	
4162	50258	
4163	50222	
4164	50189	
4165	50168	
4166	50164	
4167	50178	
4168	50202	
4169	50224	
4170	50229	
4171	50212	
4172	50185	
4173	50163	
4174	50153	
4175	50147	
4176	50131	
4177	50099	
4178	50062	
4179	50035	
4180	50019	
4181	50001	
4182	49964	
4183	49918	
4184	49896	
4185	49921	
4186	49985	
4187	50044	
4188	50060	
4189	50041	
4190	50029	
4191	50064	
4192	50131	
4193	50176	
4194	50157	
4195	50087	
4196	50034	
4197	50059	
4198	50159	
4199	50267	
4200	50313	
4201	50281	
4202	50226	
4203	50223	
4204	50303	
4205	50424	
4206	50510	
4207	50515	
4208	50464	
4209	50425	
4210	50451	
4211	50530	
4212	50605	
4213	50619	
4214	50563	
4215	50485	
4216	50447	
4217	50477	
4218	50548	
4219	50605	
4220	50601	
4221	50542	
4222	50473	
4223	50447	
4224	50482	
4225	50544	
4226	50582	
4227	50565	
4228	50510	
4229	50467	
4230	50470	
4231	50507	
4232	50524	
4233	50470	
4234	50343	
4235	50203	
4236	50124	
4237	50138	
4238	50207	
4239	50247	
4240	50204	
4241	50091	
4242	49984	
4243	49957	
4244	50019	
4245	50106	
4246	50132	
4247	50060	
4248	49927	
4249	49813	
4250	49768	
4251	49777	
4252	49778	
4253	49723	
4254	49623	
4255	49532	
4256	49504	
4257	49539	
4258	49590	
4259	49599	
4260	49551	
4261	49479	
4262	49436	
4263	49448	
4264	49492	
4265	49519	
4266	49498	
4267	49438	
4268	49374	
4269	49336	
4270	49329	
4271	49335	
4272	49334	
4273	49323	
4274	49311	
4275	49306	
4276	49309	
4277	49314	
4278	49321	
4279	49332	
4280	49347	
4281	49358	
4282	49359	
4283	49354	
4284	49359	
4285	49389	
4286	49441	
4287	49489	
4288	49504	
4289	49473	
4290	49411	
4291	49350	
4292	49307	
4293	49274	
4294	49231	
4295	49170	
4296	49117	
4297	49113	
4298	49195	
4299	49369	
4300	49618	
4301	49919	
4302	50248	
4303	50582	
4304	50889	
4305	51142	
4306	51335	
4307	51484	
4308	51598	
4309	51647	
4310	51543	
4311	51183	
4312	50532	
4313	49669	
4314	48768	
4315	48011	
4316	47483	
4317	47136	
4318	46834	
4319	46452	
4320	45958	
4321	45418	
4322	44947	
4323	44629	
4324	44468	
4325	44403	
4326	44356	
4327	44284	
4328	44197	
4329	44128	
4330	44103	
4331	44129	
4332	44211	
4333	44379	
4334	44677	
4335	45126	
4336	45681	
4337	46231	
4338	46650	
4339	46883	
4340	46980	
4341	47070	
4342	47268	
4343	47610	
4344	48031	
4345	48425	
4346	48722	
4347	48918	
4348	49050	
4349	49151	
4350	49218	
4351	49235	
4352	49208	
4353	49176	
4354	49185	
4355	49239	
4356	49298	
4357	49304	
4358	49238	
4359	49139	
4360	49076	
4361	49088	
4362	49155	
4363	49215	
4364	49219	
4365	49167	
4366	49109	
4367	49092	
4368	49125	
4369	49169	
4370	49177	
4371	49135	
4372	49075	
4373	49040	
4374	49047	
4375	49066	
4376	49047	
4377	48966	
4378	48852	
4379	48761	
4380	48733	
4381	48752	
4382	48761	
4383	48716	
4384	48619	
4385	48519	
4386	48472	
4387	48491	
4388	48539	
4389	48560	
4390	48521	
4391	48443	
4392	48377	
4393	48364	
4394	48403	
4395	48452	
4396	48467	
4397	48432	
4398	48370	
4399	48323	
4400	48320	
4401	48359	
4402	48406	
4403	48429	
4404	48418	
4405	48394	
4406	48389	
4407	48416	
4408	48460	
4409	48488	
4410	48479	
4411	48435	
4412	48380	
4413	48335	
4414	48312	
4415	48307	
4416	48313	
4417	48324	
4418	48340	
4419	48356	
4420	48367	
4421	48369	
4422	48361	
4423	48353	
4424	48349	
4425	48349	
4426	48344	
4427	48322	
4428	48287	
4429	48256	
4430	48250	
4431	48274	
4432	48307	
4433	48307	
4434	48254	
4435	48168	
4436	48102	
4437	48102	
4438	48161	
4439	48229	
4440	48248	
4441	48209	
4442	48155	
4443	48140	
4444	48173	
4445	48213	
4446	48205	
4447	48138	
4448	48057	
4449	48022	
4450	48053	
4451	48106	
4452	48120	
4453	48066	
4454	47980	
4455	47924	
4456	47937	
4457	47999	
4458	48050	
4459	48046	
4460	47990	
4461	47931	
4462	47913	
4463	47946	
4464	47991	
4465	48002	
4466	47959	
4467	47887	
4468	47835	
4469	47834	
4470	47876	
4471	47923	
4472	47942	
4473	47926	
4474	47898	
4475	47885	
4476	47900	
4477	47933	
4478	47960	
4479	47963	
4480	47937	
4481	47894	
4482	47859	
4483	47853	
4484	47877	
4485	47909	
4486	47919	
4487	47894	
4488	47851	
4489	47833	
4490	47873	
4491	47963	
4492	48053	
4493	48088	
4494	48051	
4495	47981	
4496	47938	
4497	47955	
4498	48011	
4499	48052	
4500	48039	
4501	47980	
4502	47920	
4503	47903	
4504	47941	
4505	47999	
4506	48034	
4507	48025	
4508	47990	
4509	47971	
4510	47998	
4511	48062	
4512	48124	
4513	48146	
4514	48121	
4515	48079	
4516	48064	
4517	48098	
4518	48167	
4519	48224	
4520	48227	
4521	48172	
4522	48104	
4523	48082	
4524	48136	
4525	48236	
4526	48322	
4527	48349	
4528	48331	
4529	48320	
4530	48354	
4531	48417	
4532	48454	
4533	48421	
4534	48330	
4535	48249	
4536	48250	
4537	48351	
4538	48496	
4539	48597	
4540	48604	
4541	48542	
4542	48492	
4543	48520	
4544	48620	
4545	48717	
4546	48738	
4547	48672	
4548	48584	
4549	48549	
4550	48589	
4551	48657	
4552	48690	
4553	48663	
4554	48608	
4555	48569	
4556	48560	
4557	48556	
4558	48528	
4559	48482	
4560	48459	
4561	48486	
4562	48548	
4563	48589	
4564	48566	
4565	48487	
4566	48410	
4567	48388	
4568	48418	
4569	48448	
4570	48427	
4571	48349	
4572	48259	
4573	48209	
4574	48214	
4575	48237	
4576	48228	
4577	48167	
4578	48079	
4579	48009	
4580	47989	
4581	48005	
4582	48016	
4583	47986	
4584	47920	
4585	47856	
4586	47826	
4587	47825	
4588	47818	
4589	47770	
4590	47685	
4591	47600	
4592	47550	
4593	47540	
4594	47539	
4595	47513	
4596	47449	
4597	47364	
4598	47290	
4599	47247	
4600	47239	
4601	47248	
4602	47246	
4603	47213	
4604	47145	
4605	47056	
4606	46971	
4607	46911	
4608	46873	
4609	46837	
4610	46784	
4611	46704	
4612	46614	
4613	46536	
4614	46490	
4615	46473	
4616	46464	
4617	46440	
4618	46388	
4619	46318	
4620	46255	
4621	46221	
4622	46216	
4623	46227	
4624	46235	
4625	46226	
4626	46204	
4627	46174	
4628	46138	
4629	46095	
4630	46041	
4631	45982	
4632	45926	
4633	45879	
4634	45836	
4635	45788	
4636	45732	
4637	45677	
4638	45639	
4639	45629	
4640	45636	
4641	45636	
4642	45608	
4643	45551	
4644	45488	
4645	45446	
4646	45436	
4647	45439	
4648	45422	
4649	45367	
4650	45287	
4651	45219	
4652	45196	
4653	45217	
4654	45250	
4655	45257	
4656	45224	
4657	45175	
4658	45155	
4659	45187	
4660	45253	
4661	45304	
4662	45295	
4663	45229	
4664	45151	
4665	45121	
4666	45166	
4667	45257	
4668	45331	
4669	45339	
4670	45281	
4671	45201	
4672	45151	
4673	45153	
4674	45186	
4675	45208	
4676	45192	
4677	45147	
4678	45103	
4679	45088	
4680	45098	
4681	45108	
4682	45088	
4683	45038	
4684	44983	
4685	44958	
4686	44980	
4687	45032	
4688	45082	
4689	45101	
4690	45089	
4691	45071	
4692	45078	
4693	45121	
4694	45180	
4695	45217	
4696	45204	
4697	45150	
4698	45097	
4699	45086	
4700	45121	
4701	45171	
4702	45193	
4703	45175	
4704	45142	
4705	45131	
4706	45149	
4707	45172	
4708	45166	
4709	45127	
4710	45087	
4711	45088	
4712	45148	
4713	45240	
4714	45311	
4715	45322	
4716	45273	
4717	45208	
4718	45179	
4719	45209	
4720	45273	
4721	45327	
4722	45339	
4723	45319	
4724	45308	
4725	45347	
4726	45440	
4727	45546	
4728	45612	
4729	45608	
4730	45556	
4731	45507	
4732	45505	
4733	45551	
4734	45609	
4735	45633	
4736	45608	
4737	45557	
4738	45521	
4739	45526	
4740	45557	
4741	45579	
4742	45566	
4743	45523	
4744	45486	
4745	45485	
4746	45521	
4747	45568	
4748	45590	
4749	45571	
4750	45522	
4751	45477	
4752	45465	
4753	45485	
4754	45508	
4755	45500	
4756	45449	
4757	45383	
4758	45347	
4759	45363	
4760	45408	
4761	45433	
4762	45403	
4763	45337	
4764	45285	
4765	45287	
4766	45326	
4767	45348	
4768	45308	
4769	45213	
4770	45122	
4771	45094	
4772	45140	
4773	45220	
4774	45280	
4775	45292	
4776	45276	
4777	45264	
4778	45273	
4779	45290	
4780	45294	
4781	45280	
4782	45266	
4783	45273	
4784	45299	
4785	45327	
4786	45342	
4787	45344	
4788	45348	
4789	45355	
4790	45350	
4791	45318	
4792	45265	
4793	45222	
4794	45217	
4795	45248	
4796	45280	
4797	45269	
4798	45210	
4799	45139	
4800	45106	
4801	45129	
4802	45172	
4803	45176	
4804	45113	
4805	45015	
4806	44951	
4807	44966	
4808	45032	
4809	45070	
4810	45022	
4811	44911	
4812	44830	
4813	44864	
4814	45010	
4815	45164	
4816	45214	
4817	45127	
4818	44987	
4819	44925	
4820	45008	
4821	45185	
4822	45327	
4823	45338	
4824	45234	
4825	45125	
4826	45120	
4827	45232	
4828	45371	
4829	45424	
4830	45357	
4831	45239	
4832	45184	
4833	45243	
4834	45367	
4835	45446	
4836	45407	
4837	45277	
4838	45159	
4839	45142	
4840	45226	
4841	45319	
4842	45322	
4843	45213	
4844	45066	
4845	44986	
4846	45014	
4847	45091	
4848	45114	
4849	45026	
4850	44873	
4851	44760	
4852	44765	
4853	44864	
4854	44955	
4855	44937	
4856	44802	
4857	44630	
4858	44526	
4859	44532	
4860	44598	
4861	44635	
4862	44589	
4863	44485	
4864	44396	
4865	44375	
4866	44409	
4867	44438	
4868	44407	
4869	44318	
4870	44228	
4871	44193	
4872	44221	
4873	44256	
4874	44231	
4875	44125	
4876	43985	
4877	43890	
4878	43891	
4879	43966	
4880	44042	
4881	44050	
4882	43979	
4883	43879	
4884	43821	
4885	43837	
4886	43903	
4887	43955	
4888	43946	
4889	43878	
4890	43803	
4891	43773	
4892	43806	
4893	43867	
4894	43899	
4895	43868	
4896	43792	
4897	43725	
4898	43714	
4899	43759	
4900	43810	
4901	43810	
4902	43746	
4903	43662	
4904	43627	
4905	43677	
4906	43777	
4907	43848	
4908	43830	
4909	43731	
4910	43627	
4911	43598	
4912	43674	
4913	43801	
4914	43886	
4915	43867	
4916	43760	
4917	43649	
4918	43621	
4919	43703	
4920	43851	
4921	43992	
4922	44095	
4923	44196	
4924	44369	
4925	44657	
4926	45034	
4927	45411	
4928	45702	
4929	45875	
4930	45965	
4931	46024	
4932	46051	
4933	45965	
4934	45645	
4935	45015	
4936	44121	
4937	43122	
4938	42211	
4939	41513	
4940	41018	
4941	40614	
4942	40179	
4943	39677	
4944	39180	
4945	38811	
4946	38646	
4947	38657	
4948	38734	
4949	38766	
4950	38710	
4951	38612	
4952	38549	
4953	38573	
4954	38675	
4955	38819	
4956	38989	
4957	39218	
4958	39561	
4959	40035	
4960	40580	
4961	41083	
4962	41444	
4963	41645	
4964	41765	
4965	41917	
4966	42172	
4967	42506	
4968	42824	
4969	43032	
4970	43103	
4971	43092	
4972	43086	
4973	43142	
4974	43250	
4975	43358	
4976	43416	
4977	43418	
4978	43393	
4979	43375	
4980	43374	
4981	43376	
4982	43365	
4983	43342	
4984	43320	
4985	43306	
4986	43287	
4987	43249	
4988	43189	
4989	43128	
4990	43086	
4991	43071	
4992	43066	
4993	43052	
4994	43026	
4995	43001	
4996	42986	
4997	42977	
4998	42954	
4999	42905	
5000	42846	
5001	42808	
5002	42812	
5003	42847	
5004	42874	
5005	42860	
5006	42800	
5007	42720	
5008	42658	
5009	42628	
5010	42618	
5011	42602	
5012	42566	
5013	42518	
5014	42477	
5015	42455	
5016	42451	
5017	42448	
5018	42437	
5019	42418	
5020	42405	
5021	42408	
5022	42437	
5023	42489	
5024	42547	
5025	42591	
5026	42602	
5027	42584	
5028	42558	
5029	42554	
5030	42584	
5031	42631	
5032	42661	
5033	42656	
5034	42629	
5035	42615	
5036	42644	
5037	42706	
5038	42768	
5039	42788	
5040	42758	
5041	42709	
5042	42687	
5043	42722	
5044	42804	
5045	42895	
5046	42955	
5047	42970	
5048	42967	
5049	42981	
5050	43032	
5051	43104	
5052	43160	
5053	43175	
5054	43161	
5055	43158	
5056	43200	
5057	43282	
5058	43364	
5059	43399	
5060	43371	
5061	43310	
5062	43261	
5063	43252	
5064	43273	
5065	43290	
5066	43275	
5067	43234	
5068	43198	
5069	43191	
5070	43211	
5071	43229	
5072	43217	
5073	43174	
5074	43126	
5075	43106	
5076	43125	
5077	43163	
5078	43187	
5079	43181	
5080	43164	
5081	43172	
5082	43223	
5083	43298	
5084	43347	
5085	43337	
5086	43279	
5087	43221	
5088	43210	
5089	43252	
5090	43308	
5091	43330	
5092	43299	
5093	43239	
5094	43193	
5095	43184	
5096	43205	
5097	43231	
5098	43246	
5099	43251	
5100	43258	
5101	43274	
5102	43296	
5103	43312	
5104	43318	
5105	43321	
5106	43334	
5107	43360	
5108	43388	
5109	43397	
5110	43374	
5111	43330	
5112	43296	
5113	43302	
5114	43355	
5115	43430	
5116	43493	
5117	43525	
5118	43538	
5119	43560	
5120	43612	
5121	43683	
5122	43742	
5123	43762	
5124	43743	
5125	43720	
5126	43730	
5127	43787	
5128	43864	
5129	43909	
5130	43894	
5131	43834	
5132	43780	
5133	43778	
5134	43830	
5135	43890	
5136	43909	
5137	43876	
5138	43827	
5139	43818	
5140	43869	
5141	43953	
5142	44016	
5143	44023	
5144	43985	
5145	43953	
5146	43967	
5147	44030	
5148	44103	
5149	44137	
5150	44115	
5151	44063	
5152	44029	
5153	44041	
5154	44090	
5155	44143	
5156	44168	
5157	44162	
5158	44145	
5159	44143	
5160	44165	
5161	44198	
5162	44226	
5163	44237	
5164	44238	
5165	44243	
5166	44258	
5167	44280	
5168	44298	
5169	44305	
5170	44306	
5171	44317	
5172	44348	
5173	44398	
5174	44449	
5175	44475	
5176	44452	
5177	44379	
5178	44283	
5179	44205	
5180	44176	
5181	44200	
5182	44249	
5183	44282	
5184	44279	
5185	44251	
5186	44229	
5187	44239	
5188	44279	
5189	44316	
5190	44313	
5191	44263	
5192	44189	
5193	44131	
5194	44112	
5195	44117	
5196	44112	
5197	44072	
5198	44008	
5199	43958	
5200	43956	
5201	43999	
5202	44044	
5203	44044	
5204	43989	
5205	43918	
5206	43889	
5207	43923	
5208	43985	
5209	44006	
5210	43943	
5211	43816	
5212	43692	
5213	43629	
5214	43631	
5215	43645	
5216	43612	
5217	43516	
5218	43394	
5219	43305	
5220	43277	
5221	43285	
5222	43277	
5223	43218	
5224	43112	
5225	43000	
5226	42925	
5227	42895	
5228	42888	
5229	42866	
5230	42808	
5231	42717	
5232	42617	
5233	42531	
5234	42468	
5235	42426	
5236	42392	
5237	42357	
5238	42318	
5239	42270	
5240	42216	
5241	42158	
5242	42105	
5243	42066	
5244	42045	
5245	42037	
5246	42024	
5247	41995	
5248	41946	
5249	41889	
5250	41841	
5251	41813	
5252	41799	
5253	41788	
5254	41769	
5255	41744	
5256	41722	
5257	41707	
5258	41697	
5259	41683	
5260	41664	
5261	41652	
5262	41657	
5263	41679	
5264	41702	
5265	41703	
5266	41671	
5267	41618	
5268	41570	
5269	41548	
5270	41554	
5271	41567	
5272	41561	
5273	41528	
5274	41482	
5275	41450	
5276	41449	
5277	41474	
5278	41497	
5279	41495	
5280	41464	
5281	41421	
5282	41390	
5283	41381	
5284	41386	
5285	41389	
5286	41384	
5287	41375	
5288	41373	
5289	41381	
5290	41394	
5291	41398	
5292	41389	
5293	41373	
5294	41363	
5295	41367	
5296	41385	
5297	41409	
5298	41434	
5299	41457	
5300	41475	
5301	41488	
5302	41497	
5303	41506	
5304	41522	
5305	41545	
5306	41569	
5307	41581	
5308	41579	
5309	41572	
5310	41576	
5311	41601	
5312	41635	
5313	41658	
5314	41661	
5315	41653	
5316	41663	
5317	41707	
5318	41776	
5319	41840	
5320	41876	
5321	41883	
5322	41891	
5323	41929	
5324	42005	
5325	42098	
5326	42176	
5327	42223	
5328	42249	
5329	42279	
5330	42330	
5331	42394	
5332	42445	
5333	42455	
5334	42419	
5335	42357	
5336	42304	
5337	42279	
5338	42272	
5339	42255	
5340	42210	
5341	42152	
5342	42114	
5343	42119	
5344	42156	
5345	42182	
5346	42166	
5347	42116	
5348	42073	
5349	42075	
5350	42125	
5351	42183	
5352	42205	
5353	42176	
5354	42124	
5355	42091	
5356	42096	
5357	42120	
5358	42129	
5359	42102	
5360	42051	
5361	42006	
5362	41987	
5363	41989	
5364	41989	
5365	41971	
5366	41935	
5367	41898	
5368	41869	
5369	41846	
5370	41818	
5371	41785	
5372	41757	
5373	41746	
5374	41757	
5375	41773	
5376	41778	
5377	41764	
5378	41738	
5379	41717	
5380	41708	
5381	41705	
5382	41695	
5383	41677	
5384	41663	
5385	41674	
5386	41718	
5387	41778	
5388	41821	
5389	41819	
5390	41774	
5391	41714	
5392	41672	
5393	41658	
5394	41658	
5395	41649	
5396	41623	
5397	41593	
5398	41574	
5399	41569	
5400	41559	
5401	41527	
5402	41476	
5403	41429	
5404	41412	
5405	41431	
5406	41463	
5407	41476	
5408	41454	
5409	41405	
5410	41358	
5411	41338	
5412	41352	
5413	41388	
5414	41420	
5415	41429	
5416	41408	
5417	41367	
5418	41332	
5419	41322	
5420	41344	
5421	41382	
5422	41409	
5423	41410	
5424	41385	
5425	41348	
5426	41305	
5427	41252	
5428	41179	
5429	41093	
5430	41015	
5431	40973	
5432	40975	
5433	41003	
5434	41024	
5435	41014	
5436	40974	
5437	40932	
5438	40919	
5439	40948	
5440	41009	
5441	41074	
5442	41125	
5443	41158	
5444	41184	
5445	41217	
5446	41258	
5447	41299	
5448	41327	
5449	41338	
5450	41336	
5451	41331	
5452	41332	
5453	41339	
5454	41349	
5455	41352	
5456	41335	
5457	41294	
5458	41234	
5459	41173	
5460	41133	
5461	41126	
5462	41143	
5463	41164	
5464	41173	
5465	41174	
5466	41184	
5467	41214	
5468	41254	
5469	41277	
5470	41262	
5471	41212	
5472	41158	
5473	41129	
5474	41134	
5475	41152	
5476	41150	
5477	41113	
5478	41052	
5479	40993	
5480	40957	
5481	40938	
5482	40916	
5483	40872	
5484	40805	
5485	40729	
5486	40666	
5487	40631	
5488	40621	
5489	40619	
5490	40606	
5491	40571	
5492	40522	
5493	40476	
5494	40450	
5495	40442	
5496	40434	
5497	40404	
5498	40349	
5499	40290	
5500	40255	
5501	40257	
5502	40279	
5503	40285	
5504	40259	
5505	40213	
5506	40188	
5507	40209	
5508	40264	
5509	40310	
5510	40309	
5511	40252	
5512	40170	
5513	40105	
5514	40077	
5515	40076	
5516	40073	
5517	40051	
5518	40014	
5519	39988	
5520	39994	
5521	40028	
5522	40064	
5523	40072	
5524	40041	
5525	39991	
5526	39956	
5527	39960	
5528	39994	
5529	40022	
5530	40010	
5531	39951	
5532	39870	
5533	39805	
5534	39778	
5535	39776	
5536	39766	
5537	39724	
5538	39652	
5539	39580	
5540	39534	
5541	39511	
5542	39492	
5543	39462	
5544	39435	
5545	39456	
5546	39559	
5547	39741	
5548	39958	
5549	40159	
5550	40326	
5551	40476	
5552	40642	
5553	40827	
5554	40986	
5555	41040	
5556	40909	
5557	40549	
5558	39968	
5559	39218	
5560	38377	
5561	37524	
5562	36729	
5563	36046	
5564	35509	
5565	35130	
5566	34896	
5567	34782	
5568	34760	
5569	34810	
5570	34923	
5571	35094	
5572	35304	
5573	35522	
5574	35712	
5575	35857	
5576	35972	
5577	36101	
5578	36297	
5579	36585	
5580	36954	
5581	37358	
5582	37744	
5583	38082	
5584	38374	
5585	38638	
5586	38883	
5587	39098	
5588	39258	
5589	39348	
5590	39379	
5591	39386	
5592	39400	
5593	39435	
5594	39478	
5595	39507	
5596	39516	
5597	39519	
5598	39536	
5599	39572	
5600	39608	
5601	39614	
5602	39576	
5603	39511	
5604	39455	
5605	39439	
5606	39463	
5607	39498	
5608	39509	
5609	39486	
5610	39449	
5611	39439	
5612	39479	
5613	39560	
5614	39644	
5615	39689	
5616	39679	
5617	39632	
5618	39584	
5619	39561	
5620	39561	
5621	39563	
5622	39543	
5623	39495	
5624	39436	
5625	39387	
5626	39358	
5627	39340	
5628	39312	
5629	39255	
5630	39170	
5631	39072	
5632	38988	
5633	38936	
5634	38915	
5635	38912	
5636	38904	
5637	38877	
5638	38835	
5639	38798	
5640	38788	
5641	38808	
5642	38843	
5643	38867	
5644	38867	
5645	38854	
5646	38855	
5647	38888	
5648	38947	
5649	39005	
5650	39034	
5651	39031	
5652	39012	
5653	39002	
5654	39008	
5655	39020	
5656	39020	
5657	39003	
5658	38981	
5659	38974	
5660	38987	
5661	39009	
5662	39019	
5663	39013	
5664	39006	
5665	39022	
5666	39074	
5667	39149	
5668	39213	
5669	39240	
5670	39225	
5671	39185	
5672	39144	
5673	39116	
5674	39100	
5675	39089	
5676	39075	
5677	39063	
5678	39054	
5679	39052	
5680	39055	
5681	39060	
5682	39069	
5683	39081	
5684	39093	
5685	39097	
5686	39087	
5687	39066	
5688	39046	
5689	39036	
5690	39037	
5691	39041	
5692	39040	
5693	39038	
5694	39047	
5695	39079	
5696	39128	
5697	39174	
5698	39195	
5699	39189	
5700	39170	
5701	39165	
5702	39186	
5703	39226	
5704	39262	
5705	39275	
5706	39262	
5707	39235	
5708	39209	
5709	39191	
5710	39175	
5711	39155	
5712	39134	
5713	39123	
5714	39132	
5715	39159	
5716	39190	
5717	39210	
5718	39213	
5719	39202	
5720	39186	
5721	39169	
5722	39155	
5723	39148	
5724	39153	
5725	39174	
5726	39204	
5727	39227	
5728	39232	
5729	39216	
5730	39191	
5731	39169	
5732	39158	
5733	39159	
5734	39168	
5735	39182	
5736	39201	
5737	39222	
5738	39241	
5739	39254	
5740	39262	
5741	39271	
5742	39289	
5743	39322	
5744	39365	
5745	39411	
5746	39450	
5747	39472	
5748	39469	
5749	39445	
5750	39412	
5751	39387	
5752	39381	
5753	39395	
5754	39418	
5755	39441	
5756	39458	
5757	39477	
5758	39506	
5759	39547	
5760	39592	
5761	39628	
5762	39646	
5763	39649	
5764	39644	
5765	39643	
5766	39646	
5767	39648	
5768	39646	
5769	39642	
5770	39644	
5771	39656	
5772	39678	
5773	39698	
5774	39708	
5775	39705	
5776	39697	
5777	39696	
5778	39710	
5779	39743	
5780	39786	
5781	39821	
5782	39835	
5783	39823	
5784	39797	
5785	39777	
5786	39778	
5787	39800	
5788	39829	
5789	39848	
5790	39853	
5791	39846	
5792	39837	
5793	39824	
5794	39803	
5795	39773	
5796	39745	
5797	39739	
5798	39765	
5799	39811	
5800	39846	
5801	39848	
5802	39822	
5803	39792	
5804	39782	
5805	39796	
5806	39817	
5807	39824	
5808	39817	
5809	39808	
5810	39810	
5811	39819	
5812	39818	
5813	39791	
5814	39743	
5815	39695	
5816	39666	
5817	39656	
5818	39644	
5819	39612	
5820	39562	
5821	39518	
5822	39506	
5823	39529	
5824	39560	
5825	39564	
5826	39524	
5827	39450	
5828	39377	
5829	39335	
5830	39330	
5831	39338	
5832	39320	
5833	39251	
5834	39140	
5835	39028	
5836	38962	
5837	38960	
5838	38996	
5839	39018	
5840	38980	
5841	38879	
5842	38754	
5843	38659	
5844	38621	
5845	38625	
5846	38627	
5847	38595	
5848	38527	
5849	38452	
5850	38396	
5851	38359	
5852	38320	
5853	38254	
5854	38158	
5855	38057	
5856	37981	
5857	37941	
5858	37924	
5859	37898	
5860	37842	
5861	37765	
5862	37695	
5863	37663	
5864	37672	
5865	37694	
5866	37692	
5867	37647	
5868	37571	
5869	37495	
5870	37448	
5871	37430	
5872	37417	
5873	37380	
5874	37311	
5875	37225	
5876	37152	
5877	37114	
5878	37109	
5879	37112	
5880	37097	
5881	37057	
5882	37008	
5883	36972	
5884	36962	
5885	36966	
5886	36962	
5887	36936	
5888	36896	
5889	36867	
5890	36866	
5891	36895	
5892	36935	
5893	36965	
5894	36974	
5895	36966	
5896	36954	
5897	36949	
5898	36953	
5899	36964	
5900	36975	
5901	36979	
5902	36975	
5903	36963	
5904	36944	
5905	36916	
5906	36877	
5907	36826	
5908	36768	
5909	36719	
5910	36693	
5911	36699	
5912	36726	
5913	36756	
5914	36772	
5915	36775	
5916	36780	
5917	36805	
5918	36850	
5919	36898	
5920	36923	
5921	36911	
5922	36868	
5923	36818	
5924	36786	
5925	36782	
5926	36798	
5927	36812	
5928	36810	
5929	36787	
5930	36755	
5931	36730	
5932	36720	
5933	36720	
5934	36714	
5935	36690	
5936	36648	
5937	36605	
5938	36583	
5939	36592	
5940	36627	
5941	36668	
5942	36696	
5943	36706	
5944	36710	
5945	36728	
5946	36765	
5947	36809	
5948	36839	
5949	36840	
5950	36815	
5951	36785	
5952	36772	
5953	36784	
5954	36811	
5955	36838	
5956	36851	
5957	36852	
5958	36849	
5959	36849	
5960	36855	
5961	36861	
5962	36862	
5963	36858	
5964	36853	
5965	36848	
5966	36841	
5967	36825	
5968	36797	
5969	36761	
5970	36724	
5971	36693	
5972	36664	
5973	36630	
5974	36584	
5975	36528	
5976	36467	
5977	36405	
5978	36338	
5979	36258	
5980	36161	
5981	36053	
5982	35946	
5983	35849	
5984	35761	
5985	35674	
5986	35584	
5987	35493	
5988	35412	
5989	35345	
5990	35283	
5991	35213	
5992	35123	
5993	35016	
5994	34910	
5995	34821	
5996	34751	
5997	34689	
5998	34615	
5999	34522	
6000	34423	
6001	34346	
6002	34310	
6003	34311	
6004	34323	
6005	34319	
6006	34289	
6007	34248	
6008	34224	
6009	34227	
6010	34238	
6011	34216	
6012	34125	
6013	33951	
6014	33706	
6015	33405	
6016	33046	
6017	32625	
6018	32154	
6019	31695	
6020	31350	
6021	31228	
6022	31384	
6023	31788	
6024	32332	
6025	32878	
6026	33318	
6027	33611	
6028	33784	
6029	33898	
6030	34000	
6031	34109	
6032	34207	
6033	34274	
6034	34302	
6035	34315	
6036	34352	
6037	34440	
6038	34576	
6039	34720	
6040	34825	
6041	34860	
6042	34835	
6043	34792	
6044	34782	
6045	34833	
6046	34925	
6047	35010	
6048	35035	
6049	34978	
6050	34857	
6051	34720	
6052	34613	
6053	34561	
6054	34562	
6055	34599	
6056	34659	
6057	34738	
6058	34837	
6059	34953	
6060	35067	
6061	35157	
6062	35207	
6063	35224	
6064	35230	
6065	35251	
6066	35297	
6067	35353	
6068	35391	
6069	35390	
6070	35349	
6071	35292	
6072	35250	
6073	35245	
6074	35270	
6075	35305	
6076	35329	
6077	35338	
6078	35343	
6079	35363	
6080	35404	
6081	35459	
6082	35510	
6083	35547	
6084	35572	
6085	35602	
6086	35648	
6087	35710	
6088	35772	
6089	35813	
6090	35828	
6091	35830	
6092	35842	
6093	35879	
6094	35929	
6095	35966	
6096	35964	
6097	35923	
6098	35865	
6099	35824	
6100	35817	
6101	35833	
6102	35841	
6103	35818	
6104	35764	
6105	35706	
6106	35671	
6107	35665	
6108	35668	
6109	35650	
6110	35596	
6111	35524	
6112	35466	
6113	35442	
6114	35441	
6115	35429	
6116	35380	
6117	35299	
6118	35218	
6119	35172	
6120	35163	
6121	35158	
6122	35113	
6123	35020	
6124	34912	
6125	34851	
6126	34876	
6127	34974	
6128	35091	
6129	35164	
6130	35166	
6131	35119	
6132	35070	
6133	35058	
6134	35083	
6135	35118	
6136	35132	
6137	35117	
6138	35091	
6139	35084	
6140	35111	
6141	35162	
6142	35211	
6143	35237	
6144	35237	
6145	35227	
6146	35230	
6147	35253	
6148	35288	
6149	35319	
6150	35333	
6151	35330	
6152	35323	
6153	35324	
6154	35331	
6155	35339	
6156	35338	
6157	35331	
6158	35328	
6159	35342	
6160	35374	
6161	35410	
6162	35429	
6163	35419	
6164	35383	
6165	35341	
6166	35312	
6167	35308	
6168	35328	
6169	35373	
6170	35449	
6171	35577	
6172	35772	
6173	36035	
6174	36347	
6175	36674	
6176	36990	
6177	37287	
6178	37569	
6179	37833	
6180	38049	
6181	38155	
6182	38071	
6183	37738	
6184	37156	
6185	36395	
6186	35576	
6187	34821	
6188	34206	
6189	33732	
6190	33342	
6191	32961	
6192	32543	
6193	32092	
6194	31655	
6195	31289	
6196	31029	
6197	30870	
6198	30779	
6199	30712	
6200	30639	
6201	30554	
6202	30481	
6203	30466	
6204	30557	
6205	30794	
6206	31182	
6207	31689	
6208	32244	
6209	32766	
6210	33192	
6211	33498	
6212	33709	
6213	33880	
6214	34070	
6215	34319	
6216	34631	
6217	34975	
6218	35299	
6219	35555	
6220	35717	
6221	35791	
6222	35815	
6223	35838	
6224	35892	
6225	35977	
6226	36063	
6227	36107	
6228	36087	
6229	36016	
6230	35928	
6231	35863	
6232	35834	
6233	35830	
6234	35824	
6235	35801	
6236	35766	
6237	35741	
6238	35739	
6239	35752	
6240	35755	
6241	35727	
6242	35672	
6243	35619	
6244	35606	
6245	35646	
6246	35717	
6247	35772	
6248	35774	
6249	35723	
6250	35655	
6251	35615	
6252	35624	
6253	35669	
6254	35714	
6255	35730	
6256	35714	
6257	35681	
6258	35655	
6259	35645	
6260	35649	
6261	35658	
6262	35665	
6263	35671	
6264	35679	
6265	35690	
6266	35701	
6267	35709	
6268	35714	
6269	35719	
6270	35728	
6271	35735	
6272	35734	
6273	35718	
6274	35694	
6275	35675	
6276	35680	
6277	35713	
6278	35759	
6279	35793	
6280	35794	
6281	35763	
6282	35722	
6283	35702	
6284	35716	
6285	35753	
6286	35784	
6287	35784	
6288	35749	
6289	35695	
6290	35649	
6291	35626	
6292	35628	
6293	35643	
6294	35657	
6295	35665	
6296	35670	
6297	35680	
6298	35697	
6299	35717	
6300	35730	
6301	35730	
6302	35716	
6303	35695	
6304	35679	
6305	35675	
6306	35679	
6307	35684	
6308	35680	
6309	35663	
6310	35637	
6311	35610	
6312	35585	
6313	35561	
6314	35531	
6315	35489	
6316	35438	
6317	35389	
6318	35356	
6319	35350	
6320	35368	
6321	35397	
6322	35418	
6323	35419	
6324	35395	
6325	35357	
6326	35318	
6327	35289	
6328	35271	
6329	35257	
6330	35244	
6331	35232	
6332	35224	
6333	35224	
6334	35230	
6335	35238	
6336	35246	
6337	35255	
6338	35269	
6339	35290	
6340	35319	
6341	35347	
6342	35362	
6343	35358	
6344	35335	
6345	35307	
6346	35287	
6347	35283	
6348	35289	
6349	35293	
6350	35284	
6351	35264	
6352	35240	
6353	35225	
6354	35221	
6355	35222	
6356	35224	
6357	35222	
6358	35218	
6359	35215	
6360	35211	
6361	35206	
6362	35199	
6363	35195	
6364	35200	
6365	35222	
6366	35262	
6367	35313	
6368	35367	
6369	35414	
6370	35448	
6371	35468	
6372	35475	
6373	35475	
6374	35473	
6375	35474	
6376	35481	
6377	35494	
6378	35511	
6379	35527	
6380	35542	
6381	35553	
6382	35563	
6383	35572	
6384	35576	
6385	35575	
6386	35568	
6387	35561	
6388	35559	
6389	35566	
6390	35580	
6391	35597	
6392	35612	
6393	35622	
6394	35627	
6395	35629	
6396	35629	
6397	35628	
6398	35629	
6399	35636	
6400	35649	
6401	35666	
6402	35678	
6403	35679	
6404	35666	
6405	35648	
6406	35636	
6407	35641	
6408	35662	
6409	35689	
6410	35706	
6411	35703	
6412	35682	
6413	35655	
6414	35637	
6415	35638	
6416	35655	
6417	35680	
6418	35701	
6419	35705	
6420	35687	
6421	35648	
6422	35599	
6423	35558	
6424	35540	
6425	35548	
6426	35572	
6427	35598	
6428	35616	
6429	35629	
6430	35644	
6431	35662	
6432	35676	
6433	35675	
6434	35654	
6435	35619	
6436	35584	
6437	35559	
6438	35544	
6439	35529	
6440	35503	
6441	35461	
6442	35410	
6443	35356	
6444	35305	
6445	35261	
6446	35228	
6447	35212	
6448	35216	
6449	35232	
6450	35244	
6451	35237	
6452	35207	
6453	35163	
6454	35125	
6455	35101	
6456	35089	
6457	35069	
6458	35024	
6459	34954	
6460	34879	
6461	34824	
6462	34803	
6463	34806	
6464	34808	
6465	34782	
6466	34719	
6467	34633	
6468	34546	
6469	34479	
6470	34435	
6471	34401	
6472	34359	
6473	34296	
6474	34213	
6475	34124	
6476	34045	
6477	33985	
6478	33943	
6479	33909	
6480	33876	
6481	33840	
6482	33802	
6483	33766	
6484	33730	
6485	33694	
6486	33654	
6487	33612	
6488	33572	
6489	33537	
6490	33509	
6491	33484	
6492	33459	
6493	33434	
6494	33410	
6495	33389	
6496	33366	
6497	33335	
6498	33293	
6499	33241	
6500	33188	
6501	33141	
6502	33099	
6503	33058	
6504	33012	
6505	32964	
6506	32923	
6507	32901	
6508	32900	
6509	32910	
6510	32916	
6511	32908	
6512	32888	
6513	32865	
6514	32847	
6515	32837	
6516	32827	
6517	32810	
6518	32783	
6519	32751	
6520	32721	
6521	32701	
6522	32691	
6523	32688	
6524	32689	
6525	32694	
6526	32704	
6527	32719	
6528	32734	
6529	32742	
6530	32741	
6531	32731	
6532	32723	
6533	32726	
6534	32741	
6535	32763	
6536	32778	
6537	32777	
6538	32758	
6539	32728	
6540	32700	
6541	32679	
6542	32667	
6543	32657	
6544	32645	
6545	32631	
6546	32618	
6547	32610	
6548	32606	
6549	32598	
6550	32580	
6551	32552	
6552	32520	
6553	32498	
6554	32495	
6555	32508	
6556	32523	
6557	32522	
6558	32493	
6559	32438	
6560	32372	
6561	32318	
6562	32290	
6563	32292	
6564	32310	
6565	32326	
6566	32324	
6567	32298	
6568	32256	
6569	32214	
6570	32183	
6571	32167	
6572	32157	
6573	32136	
6574	32092	
6575	32020	
6576	31930	
6577	31840	
6578	31770	
6579	31727	
6580	31708	
6581	31701	
6582	31693	
6583	31677	
6584	31657	
6585	31641	
6586	31634	
6587	31630	
6588	31615	
6589	31578	
6590	31514	
6591	31435	
6592	31364	
6593	31326	
6594	31331	
6595	31374	
6596	31438	
6597	31504	
6598	31559	
6599	31602	
6600	31638	
6601	31671	
6602	31702	
6603	31730	
6604	31754	
6605	31779	
6606	31809	
6607	31846	
6608	31886	
6609	31921	
6610	31945	
6611	31957	
6612	31966	
6613	31982	
6614	32013	
6615	32061	
6616	32117	
6617	32171	
6618	32216	
6619	32252	
6620	32286	
6621	32328	
6622	32377	
6623	32428	
6624	32473	
6625	32505	
6626	32527	
6627	32547	
6628	32574	
6629	32611	
6630	32651	
6631	32682	
6632	32698	
6633	32701	
6634	32708	
6635	32731	
6636	32774	
6637	32823	
6638	32856	
6639	32858	
6640	32829	
6641	32789	
6642	32762	
6643	32763	
6644	32789	
6645	32824	
6646	32850	
6647	32861	
6648	32865	
6649	32878	
6650	32908	
6651	32949	
6652	32989	
6653	33012	
6654	33017	
6655	33011	
6656	33009	
6657	33024	
6658	33057	
6659	33099	
6660	33140	
6661	33172	
6662	33196	
6663	33213	
6664	33227	
6665	33236	
6666	33235	
6667	33228	
6668	33217	
6669	33211	
6670	33216	
6671	33227	
6672	33232	
6673	33218	
6674	33181	
6675	33129	
6676	33079	
6677	33050	
6678	33049	
6679	33068	
6680	33093	
6681	33107	
6682	33106	
6683	33101	
6684	33104	
6685	33128	
6686	33168	
6687	33211	
6688	33240	
6689	33247	
6690	33238	
6691	33229	
6692	33236	
6693	33264	
6694	33303	
6695	33339	
6696	33362	
6697	33374	
6698	33385	
6699	33405	
6700	33432	
6701	33456	
6702	33460	
6703	33436	
6704	33390	
6705	33341	
6706	33306	
6707	33294	
6708	33298	
6709	33300	
6710	33284	
6711	33245	
6712	33192	
6713	33141	
6714	33106	
6715	33088	
6716	33079	
6717	33065	
6718	33038	
6719	32998	
6720	32953	
6721	32910	
6722	32876	
6723	32851	
6724	32834	
6725	32825	
6726	32819	
6727	32810	
6728	32792	
6729	32759	
6730	32713	
6731	32665	
6732	32625	
6733	32603	
6734	32595	
6735	32591	
6736	32577	
6737	32550	
6738	32517	
6739	32492	
6740	32489	
6741	32508	
6742	32536	
6743	32553	
6744	32548	
6745	32522	
6746	32490	
6747	32470	
6748	32472	
6749	32490	
6750	32510	
6751	32515	
6752	32500	
6753	32469	
6754	32433	
6755	32404	
6756	32383	
6757	32369	
6758	32353	
6759	32331	
6760	32301	
6761	32262	
6762	32216	
6763	32166	
6764	32116	
6765	32072	
6766	32039	
6767	32018	
6768	32005	
6769	31991	
6770	31968	
6771	31935	
6772	31900	
6773	31872	
6774	31857	
6775	31854	
6776	31853	
6777	31847	
6778	31832	
6779	31811	
6780	31791	
6781	31777	
6782	31767	
6783	31753	
6784	31730	
6785	31699	
6786	31671	
6787	31655	
6788	31660	
6789	31685	
6790	31726	
6791	31778	
6792	31850	
6793	31960	
6794	32127	
6795	32363	
6796	32663	
6797	33003	
6798	33356	
6799	33704	
6800	34043	
6801	34373	
6802	34682	
6803	34922	
6804	35020	
6805	34893	
6806	34492	
6807	33831	
6808	32994	
6809	32108	
6810	31294	
6811	30626	
6812	30105	
6813	29673	
6814	29252	
6815	28794	
6816	28305	
6817	27846	
6818	27497	
6819	27309	
6820	27276	
6821	27340	
6822	27416	
6823	27446	
6824	27421	
6825	27386	
6826	27410	
6827	27550	
6828	27828	
6829	28223	
6830	28693	
6831	29187	
6832	29660	
6833	30077	
6834	30415	
6835	30666	
6836	30845	
6837	30990	
6838	31147	
6839	31347	
6840	31583	
6841	31815	
6842	31986	
6843	32054	
6844	32016	
6845	31906	
6846	31771	
6847	31646	
6848	31533	
6849	31416	
6850	31280	
6851	31128	
6852	30986	
6853	30881	
6854	30826	
6855	30804	
6856	30787	
6857	30746	
6858	30678	
6859	30602	
6860	30542	
6861	30516	
6862	30523	
6863	30547	
6864	30572	
6865	30587	
6866	30591	
6867	30586	
6868	30574	
6869	30554	
6870	30526	
6871	30496	
6872	30470	
6873	30456	
6874	30454	
6875	30458	
6876	30462	
6877	30462	
6878	30462	
6879	30467	
6880	30483	
6881	30507	
6882	30531	
6883	30545	
6884	30547	
6885	30540	
6886	30530	
6887	30523	
6888	30519	
6889	30518	
6890	30517	
6891	30513	
6892	30504	
6893	30490	
6894	30468	
6895	30443	
6896	30421	
6897	30410	
6898	30415	
6899	30435	
6900	30462	
6901	30485	
6902	30501	
6903	30513	
6904	30532	
6905	30566	
6906	30616	
6907	30673	
6908	30725	
6909	30764	
6910	30788	
6911	30802	
6912	30813	
6913	30827	
6914	30851	
6915	30889	
6916	30945	
6917	31017	
6918	31095	
6919	31167	
6920	31224	
6921	31272	
6922	31323	
6923	31391	
6924	31480	
6925	31581	
6926	31675	
6927	31742	
6928	31773	
6929	31772	
6930	31754	
6931	31736	
6932	31727	
6933	31726	
6934	31725	
6935	31715	
6936	31689	
6937	31649	
6938	31598	
6939	31544	
6940	31492	
6941	31450	
6942	31424	
6943	31413	
6944	31412	
6945	31410	
6946	31399	
6947	31381	
6948	31363	
6949	31352	
6950	31352	
6951	31358	
6952	31360	
6953	31353	
6954	31338	
6955	31320	
6956	31306	
6957	31301	
6958	31301	
6959	31303	
6960	31300	
6961	31286	
6962	31259	
6963	31217	
6964	31165	
6965	31109	
6966	31058	
6967	31016	
6968	30983	
6969	30958	
6970	30935	
6971	30915	
6972	30900	
6973	30892	
6974	30891	
6975	30889	
6976	30878	
6977	30853	
6978	30818	
6979	30785	
6980	30761	
6981	30750	
6982	30747	
6983	30743	
6984	30731	
6985	30715	
6986	30703	
6987	30704	
6988	30718	
6989	30738	
6990	30754	
6991	30759	
6992	30755	
6993	30751	
6994	30755	
6995	30771	
6996	30794	
6997	30814	
6998	30828	
6999	30835	
7000	30843	
7001	30858	
7002	30881	
7003	30908	
7004	30930	
7005	30941	
7006	30939	
7007	30927	
7008	30910	
7009	30894	
7010	30882	
7011	30878	
7012	30880	
7013	30888	
7014	30897	
7015	30903	
7016	30901	
7017	30894	
7018	30885	
7019	30880	
7020	30880	
7021	30882	
7022	30876	
7023	30857	
7024	30827	
7025	30799	
7026	30786	
7027	30797	
7028	30825	
7029	30856	
7030	30877	
7031	30885	
7032	30884	
7033	30883	
7034	30884	
7035	30881	
7036	30863	
7037	30828	
7038	30781	
7039	30738	
7040	30711	
7041	30702	
7042	30702	
7043	30698	
7044	30681	
7045	30652	
7046	30624	
7047	30611	
7048	30621	
7049	30649	
7050	30684	
7051	30713	
7052	30733	
7053	30747	
7054	30760	
7055	30773	
7056	30775	
7057	30758	
7058	30721	
7059	30677	
7060	30648	
7061	30650	
7062	30681	
7063	30726	
7064	30765	
7065	30785	
7066	30790	
7067	30793	
7068	30806	
7069	30832	
7070	30863	
7071	30886	
7072	30893	
7073	30882	
7074	30859	
7075	30828	
7076	30792	
7077	30753	
7078	30712	
7079	30672	
7080	30638	
7081	30610	
7082	30588	
7083	30567	
7084	30541	
7085	30509	
7086	30472	
7087	30433	
7088	30399	
7089	30377	
7090	30369	
7091	30370	
7092	30370	
7093	30354	
7094	30311	
7095	30245	
7096	30165	
7097	30085	
7098	30014	
7099	29946	
7100	29874	
7101	29792	
7102	29711	
7103	29647	
7104	29615	
7105	29617	
7106	29636	
7107	29648	
7108	29639	
7109	29611	
7110	29575	
7111	29546	
7112	29528	
7113	29517	
7114	29509	
7115	29501	
7116	29496	
7117	29491	
7118	29483	
7119	29466	
7120	29442	
7121	29419	
7122	29407	
7123	29410	
7124	29421	
7125	29428	
7126	29423	
7127	29403	
7128	29373	
7129	29336	
7130	29296	
7131	29256	
7132	29221	
7133	29199	
7134	29192	
7135	29195	
7136	29198	
7137	29192	
7138	29176	
7139	29155	
7140	29138	
7141	29125	
7142	29113	
7143	29098	
7144	29080	
7145	29065	
7146	29057	
7147	29048	
7148	29031	
7149	29002	
7150	28972	
7151	28963	
7152	28990	
7153	29048	
7154	29111	
7155	29149	
7156	29148	
7157	29119	
7158	29090	
7159	29084	
7160	29102	
7161	29127	
7162	29138	
7163	29127	
7164	29106	
7165	29094	
7166	29102	
7167	29123	
7168	29142	
7169	29145	
7170	29131	
7171	29113	
7172	29103	
7173	29102	
7174	29102	
7175	29093	
7176	29070	
7177	29041	
7178	29015	
7179	28995	
7180	28977	
7181	28955	
7182	28933	
7183	28924	
7184	28942	
7185	28987	
7186	29044	
7187	29085	
7188	29096	
7189	29082	
7190	29064	
7191	29062	
7192	29080	
7193	29104	
7194	29118	
7195	29118	
7196	29113	
7197	29120	
7198	29144	
7199	29179	
7200	29211	
7201	29231	
7202	29243	
7203	29255	
7204	29276	
7205	29304	
7206	29329	
7207	29339	
7208	29333	
7209	29320	
7210	29310	
7211	29310	
7212	29315	
7213	29319	
7214	29316	
7215	29310	
7216	29310	
7217	29324	
7218	29352	
7219	29386	
7220	29415	
7221	29431	
7222	29434	
7223	29428	
7224	29418	
7225	29411	
7226	29411	
7227	29416	
7228	29428	
7229	29445	
7230	29465	
7231	29487	
7232	29510	
7233	29529	
7234	29538	
7235	29532	
7236	29510	
7237	29478	
7238	29445	
7239	29421	
7240	29408	
7241	29405	
7242	29402	
7243	29395	
7244	29382	
7245	29370	
7246	29365	
7247	29369	
7248	29377	
7249	29383	
7250	29383	
7251	29381	
7252	29381	
7253	29385	
7254	29386	
7255	29377	
7256	29354	
7257	29321	
7258	29288	
7259	29259	
7260	29233	
7261	29210	
7262	29191	
7263	29184	
7264	29195	
7265	29226	
7266	29262	
7267	29289	
7268	29297	
7269	29292	
7270	29294	
7271	29317	
7272	29362	
7273	29419	
7274	29479	
7275	29541	
7276	29611	
7277	29690	
7278	29766	
7279	29816	
7280	29825	
7281	29799	
7282	29762	
7283	29744	
7284	29758	
7285	29794	
7286	29825	
7287	29833	
7288	29822	
7289	29821	
7290	29861	
7291	29952	
7292	30075	
7293	30190	
7294	30262	
7295	30285	
7296	30279	
7297	30276	
7298	30299	
7299	30341	
7300	30379	
7301	30391	
7302	30377	
7303	30354	
7304	30348	
7305	30369	
7306	30405	
7307	30433	
7308	30434	
7309	30402	
7310	30345	
7311	30269	
7312	30173	
7313	30050	
7314	29893	
7315	29705	
7316	29503	
7317	29311	
7318	29151	
7319	29036	
7320	28970	
7321	28953	
7322	28984	
7323	29058	
7324	29162	
7325	29276	
7326	29372	
7327	29428	
7328	29440	
7329	29422	
7330	29409	
7331	29432	
7332	29504	
7333	29611	
7334	29715	
7335	29773	
7336	29759	
7337	29677	
7338	29556	
7339	29437	
7340	29357	
7341	29334	
7342	29367	
7343	29446	
7344	29552	
7345	29666	
7346	29768	
7347	29843	
7348	29888	
7349	29920	
7350	29962	
7351	30032	
7352	30131	
7353	30235	
7354	30315	
7355	30353	
7356	30358	
7357	30354	
7358	30367	
7359	30408	
7360	30469	
7361	30531	
7362	30579	
7363	30610	
7364	30632	
7365	30656	
7366	30690	
7367	30730	
7368	30763	
7369	30780	
7370	30775	
7371	30753	
7372	30727	
7373	30711	
7374	30710	
7375	30723	
7376	30744	
7377	30769	
7378	30796	
7379	30828	
7380	30863	
7381	30901	
7382	30944	
7383	30994	
7384	31056	
7385	31129	
7386	31206	
7387	31275	
7388	31323	
7389	31350	
7390	31363	
7391	31376	
7392	31401	
7393	31441	
7394	31491	
7395	31540	
7396	31582	
7397	31615	
7398	31646	
7399	31683	
7400	31728	
7401	31774	
7402	31813	
7403	31843	
7404	31870	
7405	31907	
7406	31959	
7407	32015	
7408	32054	
7409	32060	
7410	32031	
7411	31987	
7412	31952	
7413	31941	
7414	31949	
7415	31958	
7416	31949	
7417	31921	
7418	31892	
7419	31891	
7420	31942	
7421	32052	
7422	32214	
7423	32410	
7424	32623	
7425	32841	
7426	33062	
7427	33289	
7428	33523	
7429	33754	
7430	33953	
7431	34064	
7432	34019	
7433	33758	
7434	33260	
7435	32560	
7436	31745	
7437	30923	
7438	30182	
7439	29565	
7440	29068	
7441	28665	
7442	28345	
7443	28124	
7444	28037	
7445	28107	
7446	28314	
7447	28593	
7448	28860	
7449	29055	
7450	29167	
7451	29239	
7452	29335	
7453	29507	
7454	29768	
7455	30100	
7456	30476	
7457	30876	
7458	31293	
7459	31723	
7460	32150	
7461	32547	
7462	32888	
7463	33165	
7464	33392	
7465	33592	
7466	33780	
7467	33950	
7468	34078	
7469	34144	
7470	34151	
7471	34133	
7472	34130	
7473	34167	
7474	34230	
7475	34280	
7476	34280	
7477	34226	
7478	34154	
7479	34119	
7480	34153	
7481	34247	
7482	34354	
7483	34428	
7484	34450	
7485	34443	
7486	34448	
7487	34497	
7488	34590	
7489	34699	
7490	34791	
7491	34853	
7492	34895	
7493	34937	
7494	34992	
7495	35051	
7496	35096	
7497	35113	
7498	35105	
7499	35091	
7500	35093	
7501	35120	
7502	35163	
7503	35198	
7504	35208	
7505	35190	
7506	35157	
7507	35126	
7508	35107	
7509	35096	
7510	35084	
7511	35064	
7512	35040	
7513	35021	
7514	35021	
7515	35046	
7516	35095	
7517	35159	
7518	35229	
7519	35302	
7520	35374	
7521	35447	
7522	35519	
7523	35590	
7524	35656	
7525	35716	
7526	35770	
7527	35818	
7528	35864	
7529	35910	
7530	35957	
7531	36002	
7532	36037	
7533	36059	
7534	36070	
7535	36080	
7536	36108	
7537	36166	
7538	36247	
7539	36331	
7540	36388	
7541	36404	
7542	36386	
7543	36363	
7544	36367	
7545	36408	
7546	36473	
7547	36538	
7548	36583	
7549	36610	
7550	36631	
7551	36663	
7552	36707	
7553	36753	
7554	36791	
7555	36816	
7556	36835	
7557	36861	
7558	36903	
7559	36959	
7560	37020	
7561	37072	
7562	37106	
7563	37126	
7564	37144	
7565	37177	
7566	37231	
7567	37297	
7568	37360	
7569	37407	
7570	37437	
7571	37461	
7572	37493	
7573	37536	
7574	37585	
7575	37628	
7576	37658	
7577	37681	
7578	37708	
7579	37747	
7580	37794	
7581	37838	
7582	37869	
7583	37889	
7584	37914	
7585	37955	
7586	38015	
7587	38076	
7588	38119	
7589	38137	
7590	38144	
7591	38165	
7592	38221	
7593	38307	
7594	38402	
7595	38480	
7596	38532	
7597	38566	
7598	38600	
7599	38644	
7600	38695	
7601	38748	
7602	38797	
7603	38843	
7604	38886	
7605	38926	
7606	38963	
7607	39003	
7608	39053	
7609	39117	
7610	39188	
7611	39258	
7612	39322	
7613	39378	
7614	39434	
7615	39494	
7616	39558	
7617	39628	
7618	39703	
7619	39784	
7620	39870	
7621	39957	
7622	40035	
7623	40095	
7624	40130	
7625	40149	
7626	40166	
7627	40202	
7628	40262	
7629	40335	
7630	40398	
7631	40436	
7632	40455	
7633	40485	
7634	40549	
7635	40646	
7636	40747	
7637	40817	
7638	40840	
7639	40834	
7640	40840	
7641	40889	
7642	40986	
7643	41102	
7644	41200	
7645	41263	
7646	41301	
7647	41344	
7648	41412	
7649	41499	
7650	41579	
7651	41631	
7652	41658	
7653	41685	
7654	41746	
7655	41850	
7656	41977	
7657	42086	
7658	42149	
7659	42170	
7660	42183	
7661	42223	
7662	42305	
7663	42407	
7664	42495	
7665	42544	
7666	42560	
7667	42570	
7668	42604	
7669	42671	
7670	42759	
7671	42844	
7672	42911	
7673	42962	
7674	43007	
7675	43063	
7676	43135	
7677	43221	
7678	43311	
7679	43396	
7680	43469	
7681	43525	
7682	43567	
7683	43598	
7684	43625	
7685	43653	
7686	43683	
7687	43710	
7688	43725	
7689	43728	
7690	43726	
7691	43736	
7692	43768	
7693	43816	
7694	43865	
7695	43903	
7696	43934	
7697	43970	
7698	44020	
7699	44071	
7700	44101	
7701	44098	
7702	44071	
7703	44050	
7704	44053	
7705	44079	
7706	44107	
7707	44121	
7708	44124	
7709	44137	
7710	44174	
7711	44227	
7712	44269	
7713	44274	
7714	44240	
7715	44193	
7716	44162	
7717	44161	
7718	44174	
7719	44175	
7720	44154	
7721	44124	
7722	44112	
7723	44133	
7724	44171	
7725	44189	
7726	44159	
7727	44089	
7728	44020	
7729	43993	
7730	44018	
7731	44066	
7732	44094	
7733	44078	
7734	44032	
7735	43987	
7736	43969	
7737	43979	
7738	43997	
7739	44006	
7740	44002	
7741	44002	
7742	44019	
7743	44052	
7744	44084	
7745	44095	
7746	44076	
7747	44039	
7748	44009	
7749	44004	
7750	44027	
7751	44061	
7752	44083	
7753	44085	
7754	44079	
7755	44090	
7756	44129	
7757	44187	
7758	44236	
7759	44257	
7760	44256	
7761	44253	
7762	44270	
7763	44304	
7764	44339	
7765	44359	
7766	44366	
7767	44379	
7768	44413	
7769	44468	
7770	44527	
7771	44571	
7772	44595	
7773	44614	
7774	44642	
7775	44682	
7776	44719	
7777	44738	
7778	44741	
7779	44745	
7780	44775	
7781	44840	
7782	44921	
7783	44991	
7784	45033	
7785	45054	
7786	45079	
7787	45123	
7788	45181	
7789	45230	
7790	45254	
7791	45259	
7792	45272	
7793	45316	
7794	45386	
7795	45454	
7796	45488	
7797	45482	
7798	45459	
7799	45457	
7800	45496	
7801	45564	
7802	45625	
7803	45650	
7804	45639	
7805	45620	
7806	45621	
7807	45649	
7808	45692	
7809	45729	
7810	45755	
7811	45783	
7812	45827	
7813	45892	
7814	45962	
7815	46011	
7816	46025	
7817	46009	
7818	45993	
7819	46007	
7820	46062	
7821	46136	
7822	46193	
7823	46212	
7824	46207	
7825	46216	
7826	46268	
7827	46351	
7828	46425	
7829	46455	
7830	46443	
7831	46427	
7832	46444	
7833	46498	
7834	46562	
7835	46599	
7836	46603	
7837	46591	
7838	46593	
7839	46617	
7840	46652	
7841	46683	
7842	46702	
7843	46715	
7844	46731	
7845	46745	
7846	46752	
7847	46749	
7848	46747	
7849	46763	
7850	46797	
7851	46837	
7852	46861	
7853	46867	
7854	46875	
7855	46907	
7856	46968	
7857	47040	
7858	47096	
7859	47120	
7860	47121	
7861	47124	
7862	47150	
7863	47202	
7864	47264	
7865	47317	
7866	47350	
7867	47374	
7868	47406	
7869	47451	
7870	47504	
7871	47546	
7872	47565	
7873	47560	
7874	47542	
7875	47522	
7876	47516	
7877	47527	
7878	47555	
7879	47590	
7880	47626	
7881	47661	
7882	47696	
7883	47729	
7884	47752	
7885	47756	
7886	47748	
7887	47745	
7888	47763	
7889	47801	
7890	47839	
7891	47857	
7892	47849	
7893	47834	
7894	47833	
7895	47849	
7896	47863	
7897	47856	
7898	47831	
7899	47815	
7900	47838	
7901	47907	
7902	47991	
7903	48049	
7904	48062	
7905	48042	
7906	48025	
7907	48034	
7908	48072	
7909	48118	
7910	48151	
7911	48162	
7912	48156	
7913	48147	
7914	48148	
7915	48166	
7916	48195	
7917	48222	
7918	48233	
7919	48227	
7920	48220	
7921	48230	
7922	48266	
7923	48314	
7924	48343	
7925	48327	
7926	48265	
7927	48188	
7928	48147	
7929	48174	
7930	48257	
7931	48342	
7932	48369	
7933	48321	
7934	48241	
7935	48200	
7936	48243	
7937	48350	
7938	48451	
7939	48487	
7940	48459	
7941	48430	
7942	48468	
7943	48587	
7944	48728	
7945	48812	
7946	48805	
7947	48755	
7948	48751	
7949	48846	
7950	49014	
7951	49163	
7952	49217	
7953	49174	
7954	49110	
7955	49109	
7956	49195	
7957	49310	
7958	49367	
7959	49322	
7960	49211	
7961	49117	
7962	49103	
7963	49164	
7964	49238	
7965	49266	
7966	49235	
7967	49188	
7968	49174	
7969	49211	
7970	49270	
7971	49307	
7972	49301	
7973	49269	
7974	49250	
7975	49269	
7976	49317	
7977	49358	
7978	49360	
7979	49321	
7980	49273	
7981	49259	
7982	49296	
7983	49355	
7984	49380	
7985	49332	
7986	49219	
7987	49099	
7988	49032	
7989	49032	
7990	49059	
7991	49053	
7992	48987	
7993	48887	
7994	48805	
7995	48777	
7996	48794	
7997	48813	
7998	48796	
7999	48741	
8000	48682	
8001	48659	
8002	48681	
8003	48729	
8004	48764	
8005	48764	
8006	48732	
8007	48692	
8008	48667	
8009	48666	
8010	48686	
8011	48713	
8012	48732	
8013	48732	
8014	48711	
8015	48680	
8016	48659	
8017	48662	
8018	48685	
8019	48710	
8020	48722	
8021	48720	
8022	48719	
8023	48735	
8024	48762	
8025	48783	
8026	48785	
8027	48773	
8028	48766	
8029	48776	
8030	48795	
8031	48807	
8032	48803	
8033	48788	
8034	48776	
8035	48775	
8036	48781	
8037	48782	
8038	48769	
8039	48739	
8040	48694	
8041	48638	
8042	48585	
8043	48550	
8044	48549	
8045	48587	
8046	48661	
8047	48769	
8048	48921	
8049	49133	
8050	49411	
8051	49738	
8052	50072	
8053	50369	
8054	50611	
8055	50812	
8056	50994	
8057	51139	
8058	51166	
8059	50959	
8060	50453	
8061	49697	
8062	48850	
8063	48098	
8064	47533	
8065	47118	
8066	46732	
8067	46279	
8068	45755	
8069	45233	
8070	44794	
8071	44459	
8072	44198	
8073	43976	
8074	43794	
8075	43682	
8076	43654	
8077	43676	
8078	43680	
8079	43632	
8080	43577	
8081	43629	
8082	43896	
8083	44395	
8084	45025	
8085	45620	
8086	46049	
8087	46287	
8088	46415	
8089	46550	
8090	46767	
8091	47064	
8092	47386	
8093	47679	
8094	47930	
8095	48159	
8096	48382	
8097	48579	
8098	48707	
8099	48735	
8100	48686	
8101	48625	
8102	48621	
8103	48688	
8104	48776	
8105	48806	
8106	48742	
8107	48622	
8108	48532	
8109	48535	
8110	48618	
8111	48711	
8112	48743	
8113	48712	
8114	48677	
8115	48704	
8116	48800	
8117	48909	
8118	48958	
8119	48925	
8120	48857	
8121	48821	
8122	48849	
8123	48910	
8124	48943	
8125	48918	
8126	48864	
8127	48834	
8128	48856	
8129	48897	
8130	48901	
8131	48842	
8132	48752	
8133	48698	
8134	48722	
8135	48810	
8136	48909	
8137	48966	
8138	48969	
8139	48943	
8140	48922	
8141	48931	
8142	48972	
8143	49032	
8144	49093	
8145	49130	
8146	49124	
8147	49070	
8148	48991	
8149	48927	
8150	48909	
8151	48936	
8152	48975	
8153	48991	
8154	48974	
8155	48944	
8156	48934	
8157	48957	
8158	48997	
8159	49025	
8160	49020	
8161	48988	
8162	48959	
8163	48962	
8164	49003	
8165	49061	
8166	49103	
8167	49111	
8168	49097	
8169	49085	
8170	49100	
8171	49138	
8172	49176	
8173	49186	
8174	49157	
8175	49108	
8176	49073	
8177	49082	
8178	49135	
8179	49198	
8180	49223	
8181	49184	
8182	49104	
8183	49043	
8184	49051	
8185	49125	
8186	49204	
8187	49216	
8188	49135	
8189	49008	
8190	48913	
8191	48895	
8192	48937	
8193	48973	
8194	48954	
8195	48894	
8196	48851	
8197	48869	
8198	48929	
8199	48964	
8200	48923	
8201	48817	
8202	48720	
8203	48704	
8204	48776	
8205	48871	
8206	48907	
8207	48856	
8208	48768	
8209	48722	
8210	48756	
8211	48831	
8212	48872	
8213	48840	
8214	48765	
8215	48718	
8216	48744	
8217	48816	
8218	48860	
8219	48823	
8220	48729	
8221	48657	
8222	48672	
8223	48768	
8224	48870	
8225	48902	
8226	48852	
8227	48778	
8228	48756	
8229	48811	
8230	48903	
8231	48960	
8232	48940	
8233	48867	
8234	48800	
8235	48789	
8236	48833	
8237	48890	
8238	48918	
8239	48906	
8240	48883	
8241	48884	
8242	48922	
8243	48978	
8244	49020	
8245	49032	
8246	49027	
8247	49029	
8248	49049	
8249	49076	
8250	49084	
8251	49060	
8252	49020	
8253	48994	
8254	49010	
8255	49064	
8256	49124	
8257	49154	
8258	49140	
8259	49106	
8260	49103	
8261	49166	
8262	49280	
8263	49390	
8264	49436	
8265	49408	
8266	49351	
8267	49334	
8268	49391	
8269	49491	
8270	49563	
8271	49556	
8272	49486	
8273	49429	
8274	49452	
8275	49554	
8276	49663	
8277	49700	
8278	49651	
8279	49583	
8280	49578	
8281	49660	
8282	49774	
8283	49840	
8284	49823	
8285	49762	
8286	49731	
8287	49762	
8288	49822	
8289	49849	
8290	49810	
8291	49735	
8292	49688	
8293	49709	
8294	49782	
8295	49854	
8296	49875	
8297	49837	
8298	49773	
8299	49732	
8300	49746	
8301	49808	
8302	49879	
8303	49914	
8304	49890	
8305	49827	
8306	49774	
8307	49771	
8308	49817	
8309	49865	
8310	49859	
8311	49775	
8312	49649	
8313	49548	
8314	49525	
8315	49575	
8316	49642	
8317	49657	
8318	49597	
8319	49494	
8320	49410	
8321	49393	
8322	49435	
8323	49486	
8324	49494	
8325	49447	
8326	49381	
8327	49348	
8328	49371	
8329	49422	
8330	49444	
8331	49402	
8332	49307	
8333	49214	
8334	49165	
8335	49161	
8336	49156	
8337	49112	
8338	49026	
8339	48943	
8340	48906	
8341	48924	
8342	48959	
8343	48962	
8344	48909	
8345	48818	
8346	48731	
8347	48677	
8348	48655	
8349	48632	
8350	48576	
8351	48482	
8352	48376	
8353	48300	
8354	48278	
8355	48296	
8356	48312	
8357	48288	
8358	48217	
8359	48130	
8360	48071	
8361	48055	
8362	48058	
8363	48035	
8364	47962	
8365	47857	
8366	47766	
8367	47719	
8368	47709	
8369	47699	
8370	47660	
8371	47597	
8372	47543	
8373	47523	
8374	47528	
8375	47525	
8376	47485	
8377	47419	
8378	47363	
8379	47351	
8380	47380	
8381	47412	
8382	47413	
8383	47378	
8384	47337	
8385	47319	
8386	47329	
8387	47341	
8388	47330	
8389	47293	
8390	47250	
8391	47225	
8392	47219	
8393	47217	
8394	47210	
8395	47203	
8396	47215	
8397	47251	
8398	47292	
8399	47305	
8400	47270	
8401	47193	
8402	47113	
8403	47072	
8404	47085	
8405	47133	
8406	47170	
8407	47156	
8408	47086	
8409	46995	
8410	46940	
8411	46952	
8412	47013	
8413	47068	
8414	47066	
8415	47004	
8416	46934	
8417	46914	
8418	46962	
8419	47036	
8420	47071	
8421	47037	
8422	46965	
8423	46916	
8424	46929	
8425	46982	
8426	47015	
8427	46985	
8428	46906	
8429	46837	
8430	46830	
8431	46885	
8432	46951	
8433	46968	
8434	46921	
8435	46861	
8436	46853	
8437	46924	
8438	47028	
8439	47086	
8440	47055	
8441	46963	
8442	46888	
8443	46896	
8444	46979	
8445	47073	
8446	47111	
8447	47080	
8448	47022	
8449	46995	
8450	47014	
8451	47042	
8452	47020	
8453	46923	
8454	46782	
8455	46665	
8456	46630	
8457	46687	
8458	46803	
8459	46924	
8460	47005	
8461	47027	
8462	46998	
8463	46942	
8464	46890	
8465	46871	
8466	46899	
8467	46963	
8468	47033	
8469	47073	
8470	47060	
8471	46998	
8472	46922	
8473	46878	
8474	46891	
8475	46948	
8476	47001	
8477	47008	
8478	46967	
8479	46922	
8480	46918	
8481	46960	
8482	47007	
8483	47004	
8484	46937	
8485	46840	
8486	46774	
8487	46777	
8488	46838	
8489	46913	
8490	46952	
8491	46932	
8492	46867	
8493	46798	
8494	46768	
8495	46801	
8496	46879	
8497	46956	
8498	46985	
8499	46955	
8500	46900	
8501	46876	
8502	46910	
8503	46979	
8504	47024	
8505	47004	
8506	46926	
8507	46847	
8508	46826	
8509	46869	
8510	46930	
8511	46940	
8512	46871	
8513	46757	
8514	46666	
8515	46654	
8516	46716	
8517	46797	
8518	46836	
8519	46813	
8520	46761	
8521	46733	
8522	46756	
8523	46811	
8524	46853	
8525	46858	
8526	46845	
8527	46852	
8528	46896	
8529	46953	
8530	46973	
8531	46926	
8532	46831	
8533	46747	
8534	46720	
8535	46754	
8536	46809	
8537	46833	
8538	46801	
8539	46731	
8540	46666	
8541	46646	
8542	46676	
8543	46732	
8544	46771	
8545	46764	
8546	46709	
8547	46634	
8548	46576	
8549	46555	
8550	46560	
8551	46562	
8552	46535	
8553	46483	
8554	46436	
8555	46430	
8556	46477	
8557	46548	
8558	46599	
8559	46606	
8560	46586	
8561	46587	
8562	46642	
8563	46741	
8564	46833	
8565	46872	
8566	46853	
8567	46823	
8568	46839	
8569	46923	
8570	47038	
8571	47118	
8572	47127	
8573	47093	
8574	47088	
8575	47166	
8576	47309	
8577	47434	
8578	47463	
8579	47386	
8580	47278	
8581	47236	
8582	47301	
8583	47420	
8584	47490	
8585	47443	
8586	47306	
8587	47181	
8588	47157	
8589	47243	
8590	47361	
8591	47411	
8592	47353	
8593	47235	
8594	47152	
8595	47162	
8596	47240	
8597	47297	
8598	47263	
8599	47145	
8600	47030	
8601	47012	
8602	47110	
8603	47243	
8604	47291	
8605	47185	
8606	46969	
8607	46768	
8608	46693	
8609	46749	
8610	46838	
8611	46839	
8612	46716	
8613	46549	
8614	46465	
8615	46531	
8616	46688	
8617	46806	
8618	46786	
8619	46642	
8620	46487	
8621	46432	
8622	46497	
8623	46600	
8624	46633	
8625	46554	
8626	46418	
8627	46323	
8628	46326	
8629	46389	
8630	46419	
8631	46345	
8632	46186	
8633	46032	
8634	45977	
8635	46046	
8636	46175	
8637	46261	
8638	46240	
8639	46132	
8640	46016	
8641	45967	
8642	45998	
8643	46053	
8644	46060	
8645	45996	
8646	45909	
8647	45874	
8648	45922	
8649	46008	
8650	46047	
8651	45989	
8652	45869	
8653	45775	
8654	45770	
8655	45838	
8656	45892	
8657	45860	
8658	45743	
8659	45623	
8660	45581	
8661	45630	
8662	45703	
8663	45709	
8664	45616	
8665	45471	
8666	45364	
8667	45345	
8668	45385	
8669	45413	
8670	45385	
8671	45343	
8672	45385	
8673	45596	
8674	45970	
8675	46415	
8676	46822	
8677	47141	
8678	47402	
8679	47668	
8680	47956	
8681	48207	
8682	48307	
8683	48145	
8684	47675	
8685	46934	
8686	46035	
8687	45121	
8688	44324	
8689	43708	
8690	43251	
8691	42858	
8692	42421	
8693	41874	
8694	41235	
8695	40584	
8696	40017	
8697	39589	
8698	39297	
8699	39096	
8700	38937	
8701	38787	
8702	38639	
8703	38511	
8704	38445	
8705	38499	
8706	38727	
8707	39142	
8708	39699	
8709	40304	
8710	40861	
8711	41317	
8712	41681	
8713	41999	
8714	42321	
8715	42666	
8716	43036	
8717	43429	
8718	43852	
8719	44301	
8720	44736	
8721	45086	
8722	45285	
8723	45328	
8724	45287	
8725	45272	
8726	45358	
8727	45534	
8728	45712	
8729	45794	
8730	45745	
8731	45617	
8732	45508	
8733	45488	
8734	45555	
8735	45646	
8736	45696	
8737	45687	
8738	45650	
8739	45636	
8740	45668	
8741	45726	
8742	45770	
8743	45772	
8744	45743	
8745	45722	
8746	45740	
8747	45795	
8748	45845	
8749	45842	
8750	45765	
8751	45648	
8752	45551	
8753	45522	
8754	45560	
8755	45612	
8756	45614	
8757	45536	
8758	45411	
8759	45311	
8760	45294	
8761	45365	
8762	45464	
8763	45518	
8764	45494	
8765	45427	
8766	45387	
8767	45417	
8768	45493	
8769	45550	
8770	45534	
8771	45456	
8772	45380	
8773	45365	
8774	45412	
8775	45465	
8776	45457	
8777	45376	
8778	45272	
8779	45219	
8780	45249	
8781	45325	
8782	45375	
8783	45351	
8784	45271	
8785	45203	
8786	45215	
8787	45313	
8788	45434	
8789	45490	
8790	45431	
8791	45291	
8792	45158	
8793	45113	
8794	45168	
8795	45260	
8796	45302	
8797	45245	
8798	45118	
8799	45000	
8800	44966	
8801	45025	
8802	45118	
8803	45164	
8804	45123	
8805	45025	
8806	44948	
8807	44943	
8808	44996	
8809	45034	
8810	45000	
8811	44907	
8812	44834	
8813	44859	
8814	44979	
8815	45103	
8816	45122	
8817	45005	
8818	44827	
8819	44715	
8820	44738	
8821	44855	
8822	44943	
8823	44905	
8824	44748	
8825	44576	
8826	44499	
8827	44541	
8828	44623	
8829	44633	
8830	44525	
8831	44360	
8832	44248	
8833	44254	
8834	44348	
8835	44433	
8836	44433	
8837	44349	
8838	44255	
8839	44230	
8840	44289	
8841	44374	
8842	44407	
8843	44355	
8844	44255	
8845	44181	
8846	44185	
8847	44257	
8848	44339	
8849	44373	
8850	44343	
8851	44278	
8852	44234	
8853	44244	
8854	44301	
8855	44363	
8856	44389	
8857	44361	
8858	44303	
8859	44256	
8860	44252	
8861	44294	
8862	44353	
8863	44390	
8864	44382	
8865	44336	
8866	44286	
8867	44267	
8868	44288	
8869	44328	
8870	44353	
8871	44344	
8872	44314	
8873	44291	
8874	44294	
8875	44310	
8876	44311	
8877	44281	
8878	44240	
8879	44229	
8880	44274	
8881	44356	
8882	44417	
8883	44406	
8884	44321	
8885	44218	
8886	44172	
8887	44222	
8888	44337	
8889	44444	
8890	44479	
8891	44440	
8892	44387	
8893	44387	
8894	44462	
8895	44564	
8896	44624	
8897	44604	
8898	44533	
8899	44478	
8900	44484	
8901	44539	
8902	44592	
8903	44601	
8904	44570	
8905	44539	
8906	44542	
8907	44574	
8908	44594	
8909	44564	
8910	44485	
8911	44402	
8912	44370	
8913	44410	
8914	44491	
8915	44549	
8916	44540	
8917	44470	
8918	44386	
8919	44340	
8920	44348	
8921	44379	
8922	44386	
8923	44346	
8924	44279	
8925	44228	
8926	44226	
8927	44268	
8928	44317	
8929	44328	
8930	44280	
8931	44190	
8932	44099	
8933	44046	
8934	44037	
8935	44049	
8936	44046	
8937	44016	
8938	43976	
8939	43958	
8940	43975	
8941	44006	
8942	44015	
8943	43982	
8944	43922	
8945	43873	
8946	43859	
8947	43870	
8948	43873	
8949	43848	
8950	43810	
8951	43798	
8952	43833	
8953	43896	
8954	43933	
8955	43898	
8956	43795	
8957	43669	
8958	43581	
8959	43551	
8960	43554	
8961	43543	
8962	43485	
8963	43387	
8964	43282	
8965	43202	
8966	43157	
8967	43132	
8968	43107	
8969	43071	
8970	43024	
8971	42974	
8972	42924	
8973	42874	
8974	42826	
8975	42779	
8976	42735	
8977	42688	
8978	42633	
8979	42572	
8980	42515	
8981	42475	
8982	42458	
8983	42455	
8984	42449	
8985	42429	
8986	42391	
8987	42343	
8988	42292	
8989	42241	
8990	42190	
8991	42138	
8992	42081	
8993	42018	
8994	41945	
8995	41865	
8996	41789	
8997	41735	
8998	41715	
8999	41721	
9000	41727	
9001	41703	
9002	41640	
9003	41564	
9004	41513	
9005	41509	
9006	41539	
9007	41563	
9008	41546	
9009	41486	
9010	41414	
9011	41371	
9012	41374	
9013	41407	
9014	41435	
9015	41433	
9016	41402	
9017	41363	
9018	41337	
9019	41328	
9020	41324	
9021	41317	
9022	41311	
9023	41324	
9024	41362	
9025	41406	
9026	41424	
9027	41393	
9028	41323	
9029	41254	
9030	41223	
9031	41238	
9032	41275	
9033	41300	
9034	41295	
9035	41273	
9036	41255	
9037	41257	
9038	41273	
9039	41286	
9040	41284	
9041	41273	
9042	41271	
9043	41287	
9044	41320	
9045	41355	
9046	41377	
9047	41381	
9048	41370	
9049	41354	
9050	41338	
9051	41327	
9052	41317	
9053	41304	
9054	41287	
9055	41267	
9056	41251	
9057	41242	
9058	41234	
9059	41218	
9060	41194	
9061	41175	
9062	41182	
9063	41221	
9064	41269	
9065	41292	
9066	41265	
9067	41207	
9068	41169	
9069	41201	
9070	41306	
9071	41433	
9072	41513	
9073	41513	
9074	41459	
9075	41414	
9076	41421	
9077	41470	
9078	41510	
9079	41495	
9080	41428	
9081	41355	
9082	41326	
9083	41357	
9084	41417	
9085	41459	
9086	41459	
9087	41426	
9088	41393	
9089	41385	
9090	41401	
9091	41420	
9092	41426	
9093	41421	
9094	41416	
9095	41424	
9096	41440	
9097	41447	
9098	41434	
9099	41404	
9100	41379	
9101	41382	
9102	41421	
9103	41480	
9104	41529	
9105	41547	
9106	41535	
9107	41516	
9108	41513	
9109	41534	
9110	41562	
9111	41570	
9112	41547	
9113	41507	
9114	41484	
9115	41503	
9116	41564	
9117	41636	
9118	41679	
9119	41670	
9120	41623	
9121	41577	
9122	41568	
9123	41598	
9124	41635	
9125	41642	
9126	41604	
9127	41547	
9128	41516	
9129	41537	
9130	41595	
9131	41647	
9132	41654	
9133	41612	
9134	41553	
9135	41515	
9136	41515	
9137	41537	
9138	41552	
9139	41542	
9140	41517	
9141	41498	
9142	41498	
9143	41512	
9144	41523	
9145	41516	
9146	41491	
9147	41457	
9148	41428	
9149	41411	
9150	41406	
9151	41414	
9152	41432	
9153	41451	
9154	41461	
9155	41451	
9156	41418	
9157	41369	
9158	41314	
9159	41265	
9160	41229	
9161	41212	
9162	41214	
9163	41233	
9164	41261	
9165	41292	
9166	41322	
9167	41358	
9168	41404	
9169	41460	
9170	41517	
9171	41561	
9172	41585	
9173	41596	
9174	41608	
9175	41627	
9176	41648	
9177	41647	
9178	41610	
9179	41535	
9180	41443	
9181	41363	
9182	41312	
9183	41293	
9184	41290	
9185	41289	
9186	41278	
9187	41255	
9188	41224	
9189	41191	
9190	41164	
9191	41150	
9192	41156	
9193	41187	
9194	41235	
9195	41285	
9196	41317	
9197	41323	
9198	41313	
9199	41313	
9200	41342	
9201	41403	
9202	41480	
9203	41549	
9204	41599	
9205	41632	
9206	41660	
9207	41685	
9208	41703	
9209	41711	
9210	41714	
9211	41724	
9212	41747	
9213	41782	
9214	41812	
9215	41822	
9216	41810	
9217	41781	
9218	41745	
9219	41707	
9220	41665	
9221	41624	
9222	41594	
9223	41584	
9224	41598	
9225	41620	
9226	41627	
9227	41600	
9228	41541	
9229	41469	
9230	41407	
9231	41365	
9232	41335	
9233	41294	
9234	41223	
9235	41114	
9236	40981	
9237	40848	
9238	40739	
9239	40671	
9240	40643	
9241	40647	
9242	40670	
9243	40710	
9244	40769	
9245	40854	
9246	40964	
9247	41091	
9248	41216	
9249	41323	
9250	41397	
9251	41432	
9252	41428	
9253	41394	
9254	41337	
9255	41264	
9256	41183	
9257	41103	
9258	41036	
9259	40990	
9260	40963	
9261	40944	
9262	40918	
9263	40877	
9264	40831	
9265	40798	
9266	40789	
9267	40793	
9268	40785	
9269	40742	
9270	40666	
9271	40585	
9272	40535	
9273	40531	
9274	40555	
9275	40571	
9276	40555	
9277	40517	
9278	40487	
9279	40483	
9280	40494	
9281	40490	
9282	40450	
9283	40392	
9284	40350	
9285	40346	
9286	40364	
9287	40363	
9288	40313	
9289	40229	
9290	40154	
9291	40126	
9292	40144	
9293	40169	
9294	40159	
9295	40096	
9296	40004	
9297	39922	
9298	39884	
9299	39902	
9300	39971	
9301	40088	
9302	40255	
9303	40480	
9304	40766	
9305	41105	
9306	41469	
9307	41823	
9308	42128	
9309	42347	
9310	42448	
9311	42395	
9312	42152	
9313	41684	
9314	40981	
9315	40091	
9316	39122	
9317	38215	
9318	37481	
9319	36945	
9320	36530	
9321	36114	
9322	35612	
9323	35034	
9324	34479	
9325	34060	
9326	33826	
9327	33723	
9328	33634	
9329	33464	
9330	33201	
9331	32927	
9332	32758	
9333	32768	
9334	32958	
9335	33278	
9336	33678	
9337	34140	
9338	34670	
9339	35257	
9340	35848	
9341	36366	
9342	36755	
9343	37021	
9344	37238	
9345	37500	
9346	37862	
9347	38306	
9348	38753	
9349	39112	
9350	39332	
9351	39424	
9352	39448	
9353	39470	
9354	39526	
9355	39605	
9356	39671	
9357	39687	
9358	39644	
9359	39566	
9360	39497	
9361	39471	
9362	39494	
9363	39543	
9364	39582	
9365	39583	
9366	39547	
9367	39496	
9368	39463	
9369	39466	
9370	39498	
9371	39534	
9372	39550	
9373	39543	
9374	39532	
9375	39537	
9376	39561	
9377	39587	
9378	39588	
9379	39559	
9380	39519	
9381	39499	
9382	39512	
9383	39538	
9384	39541	
9385	39502	
9386	39435	
9387	39375	
9388	39346	
9389	39340	
9390	39322	
9391	39268	
9392	39186	
9393	39114	
9394	39092	
9395	39132	
9396	39205	
9397	39268	
9398	39297	
9399	39298	
9400	39303	
9401	39338	
9402	39396	
9403	39445	
9404	39452	
9405	39409	
9406	39339	
9407	39280	
9408	39253	
9409	39247	
9410	39235	
9411	39198	
9412	39141	
9413	39089	
9414	39061	
9415	39056	
9416	39052	
9417	39034	
9418	39003	
9419	38983	
9420	38992	
9421	39030	
9422	39075	
9423	39097	
9424	39080	
9425	39031	
9426	38980	
9427	38956	
9428	38968	
9429	39000	
9430	39023	
9431	39015	
9432	38978	
9433	38934	
9434	38908	
9435	38907	
9436	38917	
9437	38918	
9438	38900	
9439	38870	
9440	38851	
9441	38856	
9442	38882	
9443	38911	
9444	38923	
9445	38912	
9446	38891	
9447	38874	
9448	38869	
9449	38865	
9450	38848	
9451	38816	
9452	38788	
9453	38790	
9454	38834	
9455	38901	
9456	38949	
9457	38948	
9458	38900	
9459	38839	
9460	38807	
9461	38820	
9462	38859	
9463	38886	
9464	38877	
9465	38841	
9466	38812	
9467	38817	
9468	38849	
9469	38871	
9470	38839	
9471	38743	
9472	38619	
9473	38523	
9474	38493	
9475	38518	
9476	38549	
9477	38544	
9478	38502	
9479	38466	
9480	38484	
9481	38567	
9482	38681	
9483	38774	
9484	38821	
9485	38840	
9486	38873	
9487	38943	
9488	39035	
9489	39108	
9490	39130	
9491	39108	
9492	39079	
9493	39079	
9494	39113	
9495	39149	
9496	39151	
9497	39106	
9498	39039	
9499	38996	
9500	39006	
9501	39065	
9502	39140	
9503	39194	
9504	39212	
9505	39208	
9506	39207	
9507	39231	
9508	39276	
9509	39323	
9510	39350	
9511	39348	
9512	39333	
9513	39331	
9514	39362	
9515	39424	
9516	39490	
9517	39527	
9518	39522	
9519	39496	
9520	39491	
9521	39534	
9522	39617	
9523	39695	
9524	39723	
9525	39691	
9526	39634	
9527	39605	
9528	39640	
9529	39727	
9530	39819	
9531	39869	
9532	39867	
9533	39842	
9534	39838	
9535	39877	
9536	39948	
9537	40019	
9538	40064	
9539	40086	
9540	40101	
9541	40123	
9542	40152	
9543	40172	
9544	40170	
9545	40153	
9546	40140	
9547	40149	
9548	40187	
9549	40238	
9550	40279	
9551	40289	
9552	40268	
9553	40232	
9554	40202	
9555	40194	
9556	40206	
9557	40221	
9558	40223	
9559	40206	
9560	40185	
9561	40179	
9562	40199	
9563	40237	
9564	40268	
9565	40271	
9566	40243	
9567	40203	
9568	40171	
9569	40155	
9570	40142	
9571	40109	
9572	40044	
9573	39957	
9574	39877	
9575	39826	
9576	39807	
9577	39799	
9578	39781	
9579	39749	
9580	39723	
9581	39723	
9582	39756	
9583	39800	
9584	39823	
9585	39801	
9586	39737	
9587	39655	
9588	39586	
9589	39550	
9590	39537	
9591	39528	
9592	39503	
9593	39461	
9594	39416	
9595	39384	
9596	39366	
9597	39348	
9598	39318	
9599	39274	
9600	39226	
9601	39183	
9602	39135	
9603	39062	
9604	38954	
9605	38833	
9606	38738	
9607	38700	
9608	38708	
9609	38718	
9610	38680	
9611	38579	
9612	38446	
9613	38335	
9614	38284	
9615	38284	
9616	38292	
9617	38264	
9618	38188	
9619	38093	
9620	38024	
9621	38006	
9622	38021	
9623	38028	
9624	37994	
9625	37922	
9626	37846	
9627	37805	
9628	37808	
9629	37828	
9630	37828	
9631	37785	
9632	37713	
9633	37648	
9634	37621	
9635	37633	
9636	37653	
9637	37643	
9638	37586	
9639	37497	
9640	37416	
9641	37376	
9642	37382	
9643	37411	
9644	37431	
9645	37423	
9646	37392	
9647	37358	
9648	37338	
9649	37333	
9650	37331	
9651	37320	
9652	37302	
9653	37290	
9654	37299	
9655	37333	
9656	37378	
9657	37408	
9658	37402	
9659	37358	
9660	37293	
9661	37236	
9662	37208	
9663	37213	
9664	37236	
9665	37259	
9666	37269	
9667	37266	
9668	37256	
9669	37247	
9670	37239	
9671	37221	
9672	37185	
9673	37132	
9674	37078	
9675	37046	
9676	37051	
9677	37089	
9678	37139	
9679	37179	
9680	37198	
9681	37200	
9682	37199	
9683	37203	
9684	37210	
9685	37210	
9686	37192	
9687	37161	
9688	37129	
9689	37111	
9690	37111	
9691	37116	
9692	37112	
9693	37089	
9694	37056	
9695	37034	
9696	37036	
9697	37064	
9698	37098	
9699	37120	
9700	37122	
9701	37110	
9702	37101	
9703	37104	
9704	37117	
9705	37129	
9706	37132	
9707	37127	
9708	37121	
9709	37122	
9710	37133	
9711	37146	
9712	37152	
9713	37142	
9714	37113	
9715	37067	
9716	37013	
9717	36961	
9718	36924	
9719	36906	
9720	36904	
9721	36908	
9722	36905	
9723	36890	
9724	36869	
9725	36855	
9726	36856	
9727	36871	
9728	36883	
9729	36872	
9730	36829	
9731	36759	
9732	36688	
9733	36641	
9734	36631	
9735	36651	
9736	36677	
9737	36686	
9738	36668	
9739	36630	
9740	36593	
9741	36577	
9742	36595	
9743	36641	
9744	36694	
9745	36732	
9746	36740	
9747	36718	
9748	36679	
9749	36641	
9750	36612	
9751	36594	
9752	36583	
9753	36580	
9754	36589	
9755	36613	
9756	36646	
9757	36674	
9758	36685	
9759	36676	
9760	36653	
9761	36629	
9762	36611	
9763	36601	
9764	36597	
9765	36602	
9766	36617	
9767	36638	
9768	36658	
9769	36662	
9770	36646	
9771	36616	
9772	36585	
9773	36571	
9774	36577	
9775	36597	
9776	36618	
9777	36631	
9778	36640	
9779	36656	
9780	36683	
9781	36713	
9782	36732	
9783	36726	
9784	36702	
9785	36679	
9786	36680	
9787	36710	
9788	36759	
9789	36803	
9790	36826	
9791	36833	
9792	36842	
9793	36868	
9794	36913	
9795	36959	
9796	36981	
9797	36970	
9798	36934	
9799	36896	
9800	36869	
9801	36855	
9802	36841	
9803	36818	
9804	36791	
9805	36769	
9806	36763	
9807	36768	
9808	36767	
9809	36747	
9810	36704	
9811	36647	
9812	36592	
9813	36549	
9814	36520	
9815	36500	
9816	36481	
9817	36457	
9818	36428	
9819	36395	
9820	36365	
9821	36347	
9822	36345	
9823	36365	
9824	36408	
9825	36479	
9826	36584	
9827	36730	
9828	36910	
9829	37104	
9830	37275	
9831	37390	
9832	37437	
9833	37430	
9834	37405	
9835	37393	
9836	37405	
9837	37424	
9838	37420	
9839	37370	
9840	37268	
9841	37134	
9842	36998	
9843	36890	
9844	36825	
9845	36801	
9846	36801	
9847	36808	
9848	36818	
9849	36840	
9850	36894	
9851	36984	
9852	37096	
9853	37191	
9854	37229	
9855	37197	
9856	37117	
9857	37036	
9858	36998	
9859	37011	
9860	37044	
9861	37056	
9862	37021	
9863	36948	
9864	36865	
9865	36793	
9866	36731	
9867	36660	
9868	36567	
9869	36461	
9870	36372	
9871	36322	
9872	36312	
9873	36323	
9874	36328	
9875	36316	
9876	36294	
9877	36276	
9878	36266	
9879	36252	
9880	36218	
9881	36156	
9882	36077	
9883	36006	
9884	35961	
9885	35938	
9886	35914	
9887	35861	
9888	35770	
9889	35665	
9890	35582	
9891	35552	
9892	35571	
9893	35607	
9894	35623	
9895	35605	
9896	35573	
9897	35558	
9898	35572	
9899	35594	
9900	35578	
9901	35497	
9902	35365	
9903	35233	
9904	35159	
9905	35167	
9906	35240	
9907	35335	
9908	35420	
9909	35491	
9910	35571	
9911	35679	
9912	35809	
9913	35928	
9914	35997	
9915	35997	
9916	35940	
9917	35860	
9918	35790	
9919	35744	
9920	35708	
9921	35661	
9922	35590	
9923	35499	
9924	35413	
9925	35355	
9926	35340	
9927	35369	
9928	35435	
9929	35532	
9930	35660	
9931	35826	
9932	36034	
9933	36278	
9934	36544	
9935	36812	
9936	37058	
9937	37252	
9938	37355	
9939	37319	
9940	37097	
9941	36666	
9942	36042	
9943	35281	
9944	34464	
9945	33666	
9946	32935	
9947	32285	
9948	31717	
9949	31237	
9950	30870	
9951	30649	
9952	30590	
9953	30675	
9954	30848	
9955	31035	
9956	31176	
9957	31251	
9958	31285	
9959	31323	
9960	31410	
9961	31568	
9962	31792	
9963	32066	
9964	32371	
9965	32699	
9966	33045	
9967	33403	
9968	33760	
9969	34103	
9970	34419	
9971	34705	
9972	34963	
9973	35190	
9974	35374	
9975	35499	
9976	35557	
9977	35562	
9978	35548	
9979	35558	
9980	35614	
9981	35706	
9982	35791	
9983	35823	
9984	35780	
9985	35682	
9986	35579	
9987	35524	
9988	35537	
9989	35600	
9990	35668	
9991	35700	
9992	35678	
9993	35621	
9994	35562	
9995	35528	
9996	35524	
9997	35535	
9998	35538	
9999	35521	
10000	35489	
10001	35459	
10002	35443	
10003	35446	
10004	35460	
10005	35472	
10006	35472	
10007	35461	
10008	35442	
10009	35423	
10010	35408	
10011	35400	
10012	35399	
10013	35401	
10014	35405	
10015	35404	
10016	35396	
10017	35381	
10018	35364	
10019	35351	
10020	35350	
10021	35361	
10022	35379	
10023	35392	
10024	35395	
10025	35385	
10026	35369	
10027	35351	
10028	35338	
10029	35331	
10030	35329	
10031	35331	
10032	35333	
10033	35332	
10034	35323	
10035	35307	
10036	35289	
10037	35277	
10038	35280	
10039	35299	
10040	35324	
10041	35341	
10042	35341	
10043	35327	
10044	35316	
10045	35326	
10046	35366	
10047	35428	
10048	35488	
10049	35521	
10050	35518	
10051	35484	
10052	35441	
10053	35409	
10054	35398	
10055	35401	
10056	35407	
10057	35408	
10058	35402	
10059	35398	
10060	35402	
10061	35412	
10062	35418	
10063	35407	
10064	35381	
10065	35349	
10066	35327	
10067	35322	
10068	35330	
10069	35338	
10070	35340	
10071	35332	
10072	35324	
10073	35319	
