# OpenSignals Text File Format
# {"00:80:E1:26:9E:1A":{"sensor":["ECG"],"device name":"00:80:E1:26:9E:1A","column":["nSeq","ECG"],"sync interval":2,"time":"15:27:22","comments":"","keywords":"","device connection":"BLE00:80:E1:26:9E:1A","channels":[0],"date":"2025-06-11","mode":0,"digital IO":[],"firmware version":256,"device":"cardiobanplux","position":0,"sampling rate":1000,"label":["ECG"],"resolution":[16],"special":[{}],"sleeve color":["UNKNOWN"]}}
# EndOfHeader
0	26137	
1	26094	
2	26031	
3	25988	
4	25992	
5	26034	
6	26074	
7	26073	
8	26028	
9	25975	
10	25953	
11	25974	
12	26010	
13	26020	
14	25989	
15	25936	
16	25902	
17	25904	
18	25927	
19	25935	
20	25905	
21	25846	
22	25795	
23	25782	
24	25805	
25	25837	
26	25848	
27	25831	
28	25809	
29	25812	
30	25852	
31	25913	
32	25963	
33	25978	
34	25956	
35	25918	
36	25892	
37	25892	
38	25914	
39	25937	
40	25946	
41	25937	
42	25926	
43	25927	
44	25949	
45	25982	
46	26010	
47	26024	
48	26027	
49	26032	
50	26046	
51	26070	
52	26097	
53	26119	
54	26132	
55	26138	
56	26137	
57	26130	
58	26119	
59	26109	
60	26110	
61	26125	
62	26144	
63	26154	
64	26148	
65	26138	
66	26143	
67	26177	
68	26230	
69	26272	
70	26276	
71	26244	
72	26205	
73	26195	
74	26224	
75	26274	
76	26307	
77	26305	
78	26278	
79	26257	
80	26263	
81	26290	
82	26314	
83	26317	
84	26306	
85	26304	
86	26330	
87	26378	
88	26419	
89	26427	
90	26397	
91	26351	
92	26324	
93	26335	
94	26376	
95	26416	
96	26428	
97	26406	
98	26370	
99	26346	
100	26350	
101	26375	
102	26401	
103	26410	
104	26403	
105	26395	
106	26408	
107	26447	
108	26496	
109	26526	
110	26515	
111	26473	
112	26433	
113	26428	
114	26468	
115	26523	
116	26550	
117	26524	
118	26460	
119	26405	
120	26398	
121	26442	
122	26502	
123	26537	
124	26532	
125	26509	
126	26502	
127	26526	
128	26559	
129	26569	
130	26541	
131	26496	
132	26470	
133	26482	
134	26514	
135	26532	
136	26514	
137	26470	
138	26438	
139	26448	
140	26496	
141	26549	
142	26568	
143	26541	
144	26492	
145	26461	
146	26475	
147	26526	
148	26582	
149	26611	
150	26601	
151	26567	
152	26533	
153	26512	
154	26506	
155	26506	
156	26504	
157	26500	
158	26497	
159	26501	
160	26514	
161	26533	
162	26552	
163	26565	
164	26567	
165	26560	
166	26548	
167	26539	
168	26540	
169	26548	
170	26557	
171	26556	
172	26543	
173	26528	
174	26523	
175	26536	
176	26557	
177	26572	
178	26571	
179	26561	
180	26559	
181	26573	
182	26601	
183	26624	
184	26628	
185	26614	
186	26596	
187	26593	
188	26612	
189	26640	
190	26656	
191	26644	
192	26609	
193	26570	
194	26550	
195	26559	
196	26586	
197	26612	
198	26621	
199	26613	
200	26600	
201	26592	
202	26590	
203	26589	
204	26583	
205	26578	
206	26584	
207	26608	
208	26644	
209	26673	
210	26681	
211	26669	
212	26656	
213	26658	
214	26676	
215	26695	
216	26696	
217	26677	
218	26655	
219	26652	
220	26678	
221	26723	
222	26771	
223	26813	
224	26856	
225	26902	
226	26941	
227	26955	
228	26936	
229	26901	
230	26878	
231	26890	
232	26924	
233	26947	
234	26932	
235	26887	
236	26851	
237	26862	
238	26924	
239	26997	
240	27035	
241	27027	
242	27003	
243	27008	
244	27066	
245	27155	
246	27230	
247	27264	
248	27263	
249	27257	
250	27264	
251	27274	
252	27262	
253	27217	
254	27158	
255	27124	
256	27134	
257	27174	
258	27198	
259	27171	
260	27098	
261	27029	
262	27017	
263	27077	
264	27172	
265	27242	
266	27247	
267	27200	
268	27152	
269	27150	
270	27198	
271	27258	
272	27284	
273	27257	
274	27202	
275	27165	
276	27171	
277	27208	
278	27236	
279	27227	
280	27184	
281	27138	
282	27122	
283	27140	
284	27165	
285	27162	
286	27121	
287	27067	
288	27045	
289	27078	
290	27146	
291	27199	
292	27194	
293	27135	
294	27067	
295	27047	
296	27094	
297	27173	
298	27222	
299	27199	
300	27117	
301	27035	
302	27007	
303	27043	
304	27103	
305	27134	
306	27110	
307	27052	
308	27000	
309	26981	
310	26987	
311	26994	
312	26980	
313	26948	
314	26915	
315	26900	
316	26908	
317	26936	
318	26971	
319	27000	
320	27013	
321	27003	
322	26975	
323	26944	
324	26926	
325	26934	
326	26965	
327	27002	
328	27026	
329	27026	
330	27006	
331	26981	
332	26968	
333	26974	
334	26996	
335	27022	
336	27039	
337	27043	
338	27039	
339	27036	
340	27041	
341	27053	
342	27066	
343	27069	
344	27058	
345	27039	
346	27022	
347	27022	
348	27042	
349	27072	
350	27100	
351	27118	
352	27126	
353	27127	
354	27123	
355	27111	
356	27091	
357	27070	
358	27057	
359	27057	
360	27068	
361	27078	
362	27076	
363	27066	
364	27062	
365	27077	
366	27116	
367	27164	
368	27201	
369	27215	
370	27212	
371	27212	
372	27231	
373	27271	
374	27317	
375	27349	
376	27358	
377	27353	
378	27342	
379	27323	
380	27271	
381	27145	
382	26909	
383	26550	
384	26093	
385	25599	
386	25148	
387	24812	
388	24630	
389	24590	
390	24634	
391	24692	
392	24709	
393	24673	
394	24604	
395	24535	
396	24480	
397	24428	
398	24345	
399	24209	
400	24038	
401	23898	
402	23883	
403	24074	
404	24489	
405	25061	
406	25663	
407	26165	
408	26497	
409	26672	
410	26764	
411	26854	
412	26980	
413	27129	
414	27258	
415	27332	
416	27345	
417	27322	
418	27301	
419	27306	
420	27337	
421	27369	
422	27376	
423	27352	
424	27317	
425	27307	
426	27342	
427	27405	
428	27456	
429	27459	
430	27421	
431	27379	
432	27379	
433	27426	
434	27485	
435	27504	
436	27456	
437	27367	
438	27296	
439	27288	
440	27344	
441	27419	
442	27462	
443	27453	
444	27418	
445	27401	
446	27424	
447	27470	
448	27498	
449	27482	
450	27437	
451	27411	
452	27438	
453	27513	
454	27588	
455	27618	
456	27596	
457	27556	
458	27547	
459	27586	
460	27649	
461	27693	
462	27692	
463	27657	
464	27624	
465	27620	
466	27644	
467	27673	
468	27681	
469	27662	
470	27633	
471	27619	
472	27635	
473	27673	
474	27711	
475	27729	
476	27719	
477	27698	
478	27689	
479	27708	
480	27753	
481	27801	
482	27825	
483	27816	
484	27783	
485	27752	
486	27744	
487	27762	
488	27791	
489	27811	
490	27814	
491	27806	
492	27799	
493	27800	
494	27803	
495	27799	
496	27788	
497	27779	
498	27781	
499	27797	
500	27816	
501	27823	
502	27816	
503	27809	
504	27818	
505	27853	
506	27899	
507	27931	
508	27933	
509	27910	
510	27884	
511	27882	
512	27907	
513	27944	
514	27968	
515	27968	
516	27951	
517	27936	
518	27937	
519	27952	
520	27970	
521	27979	
522	27979	
523	27980	
524	27989	
525	28007	
526	28028	
527	28043	
528	28052	
529	28058	
530	28067	
531	28078	
532	28084	
533	28077	
534	28057	
535	28032	
536	28012	
537	28006	
538	28012	
539	28021	
540	28023	
541	28017	
542	28012	
543	28019	
544	28045	
545	28084	
546	28123	
547	28152	
548	28168	
549	28175	
550	28179	
551	28183	
552	28189	
553	28194	
554	28199	
555	28204	
556	28209	
557	28217	
558	28229	
559	28245	
560	28264	
561	28282	
562	28294	
563	28298	
564	28299	
565	28305	
566	28324	
567	28350	
568	28376	
569	28394	
570	28405	
571	28417	
572	28434	
573	28449	
574	28451	
575	28434	
576	28407	
577	28390	
578	28396	
579	28422	
580	28450	
581	28466	
582	28468	
583	28473	
584	28494	
585	28537	
586	28589	
587	28635	
588	28667	
589	28685	
590	28700	
591	28717	
592	28736	
593	28748	
594	28749	
595	28741	
596	28736	
597	28747	
598	28778	
599	28820	
600	28859	
601	28882	
602	28891	
603	28900	
604	28925	
605	28970	
606	29026	
607	29073	
608	29100	
609	29111	
610	29119	
611	29137	
612	29167	
613	29201	
614	29229	
615	29249	
616	29265	
617	29283	
618	29304	
619	29327	
620	29354	
621	29386	
622	29429	
623	29479	
624	29529	
625	29572	
626	29608	
627	29640	
628	29670	
629	29701	
630	29729	
631	29755	
632	29785	
633	29825	
634	29874	
635	29924	
636	29962	
637	29984	
638	29997	
639	30018	
640	30057	
641	30110	
642	30161	
643	30194	
644	30205	
645	30205	
646	30208	
647	30220	
648	30239	
649	30259	
650	30274	
651	30289	
652	30310	
653	30335	
654	30358	
655	30368	
656	30363	
657	30350	
658	30344	
659	30353	
660	30373	
661	30387	
662	30381	
663	30350	
664	30309	
665	30279	
666	30273	
667	30286	
668	30301	
669	30297	
670	30270	
671	30231	
672	30200	
673	30186	
674	30180	
675	30161	
676	30114	
677	30041	
678	29965	
679	29913	
680	29896	
681	29900	
682	29899	
683	29868	
684	29808	
685	29738	
686	29683	
687	29655	
688	29647	
689	29634	
690	29601	
691	29544	
692	29479	
693	29424	
694	29387	
695	29360	
696	29329	
697	29284	
698	29227	
699	29169	
700	29124	
701	29095	
702	29073	
703	29049	
704	29016	
705	28976	
706	28936	
707	28903	
708	28876	
709	28854	
710	28833	
711	28814	
712	28800	
713	28789	
714	28776	
715	28753	
716	28713	
717	28660	
718	28608	
719	28573	
720	28561	
721	28562	
722	28558	
723	28539	
724	28512	
725	28498	
726	28511	
727	28547	
728	28582	
729	28593	
730	28574	
731	28540	
732	28514	
733	28506	
734	28508	
735	28506	
736	28490	
737	28467	
738	28451	
739	28450	
740	28463	
741	28480	
742	28492	
743	28494	
744	28492	
745	28489	
746	28487	
747	28485	
748	28481	
749	28474	
750	28467	
751	28461	
752	28460	
753	28464	
754	28474	
755	28488	
756	28502	
757	28509	
758	28507	
759	28496	
760	28485	
761	28479	
762	28479	
763	28481	
764	28481	
765	28485	
766	28499	
767	28527	
768	28561	
769	28585	
770	28588	
771	28571	
772	28550	
773	28541	
774	28554	
775	28584	
776	28615	
777	28630	
778	28623	
779	28600	
780	28574	
781	28562	
782	28575	
783	28611	
784	28659	
785	28699	
786	28717	
787	28711	
788	28695	
789	28687	
790	28699	
791	28730	
792	28764	
793	28782	
794	28778	
795	28759	
796	28741	
797	28736	
798	28745	
799	28758	
800	28768	
801	28773	
802	28784	
803	28808	
804	28839	
805	28863	
806	28869	
807	28852	
808	28828	
809	28814	
810	28819	
811	28841	
812	28863	
813	28873	
814	28871	
815	28866	
816	28870	
817	28882	
818	28893	
819	28892	
820	28880	
821	28867	
822	28868	
823	28891	
824	28928	
825	28964	
826	28987	
827	28996	
828	29000	
829	29008	
830	29022	
831	29037	
832	29045	
833	29041	
834	29031	
835	29020	
836	29015	
837	29015	
838	29016	
839	29016	
840	29013	
841	29011	
842	29012	
843	29018	
844	29031	
845	29047	
846	29061	
847	29067	
848	29061	
849	29042	
850	29020	
851	29008	
852	29013	
853	29034	
854	29057	
855	29072	
856	29075	
857	29073	
858	29076	
859	29090	
860	29111	
861	29133	
862	29149	
863	29158	
864	29162	
865	29164	
866	29164	
867	29163	
868	29163	
869	29167	
870	29173	
871	29180	
872	29182	
873	29180	
874	29174	
875	29169	
876	29169	
877	29174	
878	29182	
879	29188	
880	29186	
881	29170	
882	29142	
883	29111	
884	29092	
885	29099	
886	29134	
887	29187	
888	29238	
889	29270	
890	29280	
891	29272	
892	29259	
893	29248	
894	29242	
895	29239	
896	29236	
897	29229	
898	29221	
899	29214	
900	29208	
901	29205	
902	29203	
903	29200	
904	29198	
905	29200	
906	29209	
907	29223	
908	29240	
909	29256	
910	29269	
911	29279	
912	29283	
913	29275	
914	29251	
915	29215	
916	29177	
917	29152	
918	29151	
919	29173	
920	29205	
921	29234	
922	29253	
923	29269	
924	29288	
925	29315	
926	29340	
927	29355	
928	29356	
929	29351	
930	29352	
931	29361	
932	29370	
933	29368	
934	29352	
935	29335	
936	29331	
937	29347	
938	29374	
939	29397	
940	29411	
941	29419	
942	29429	
943	29442	
944	29449	
945	29440	
946	29417	
947	29396	
948	29398	
949	29431	
950	29487	
951	29540	
952	29572	
953	29579	
954	29580	
955	29595	
956	29634	
957	29687	
958	29732	
959	29754	
960	29756	
961	29754	
962	29767	
963	29797	
964	29833	
965	29856	
966	29855	
967	29835	
968	29812	
969	29803	
970	29811	
971	29831	
972	29848	
973	29851	
974	29843	
975	29830	
976	29821	
977	29815	
978	29809	
979	29793	
980	29767	
981	29736	
982	29708	
983	29693	
984	29693	
985	29710	
986	29742	
987	29784	
988	29824	
989	29847	
990	29845	
991	29819	
992	29785	
993	29758	
994	29746	
995	29741	
996	29731	
997	29706	
998	29671	
999	29640	
1000	29625	
1001	29627	
1002	29638	
1003	29644	
1004	29642	
1005	29634	
1006	29627	
1007	29626	
1008	29631	
1009	29636	
1010	29641	
1011	29644	
1012	29648	
1013	29652	
1014	29651	
1015	29638	
1016	29612	
1017	29579	
1018	29551	
1019	29539	
1020	29549	
1021	29571	
1022	29586	
1023	29575	
1024	29538	
1025	29493	
1026	29466	
1027	29474	
1028	29508	
1029	29543	
1030	29557	
1031	29544	
1032	29522	
1033	29510	
1034	29515	
1035	29526	
1036	29529	
1037	29515	
1038	29497	
1039	29493	
1040	29513	
1041	29547	
1042	29575	
1043	29586	
1044	29581	
1045	29577	
1046	29587	
1047	29607	
1048	29627	
1049	29637	
1050	29638	
1051	29639	
1052	29648	
1053	29659	
1054	29659	
1055	29640	
1056	29611	
1057	29589	
1058	29588	
1059	29603	
1060	29617	
1061	29615	
1062	29598	
1063	29585	
1064	29594	
1065	29627	
1066	29666	
1067	29687	
1068	29681	
1069	29658	
1070	29642	
1071	29647	
1072	29666	
1073	29679	
1074	29667	
1075	29629	
1076	29584	
1077	29553	
1078	29551	
1079	29576	
1080	29616	
1081	29658	
1082	29693	
1083	29722	
1084	29747	
1085	29765	
1086	29773	
1087	29767	
1088	29743	
1089	29707	
1090	29663	
1091	29616	
1092	29561	
1093	29481	
1094	29347	
1095	29128	
1096	28806	
1097	28395	
1098	27942	
1099	27520	
1100	27200	
1101	27028	
1102	26996	
1103	27053	
1104	27122	
1105	27144	
1106	27102	
1107	27028	
1108	26970	
1109	26959	
1110	26982	
1111	26991	
1112	26939	
1113	26820	
1114	26688	
1115	26640	
1116	26767	
1117	27106	
1118	27613	
1119	28181	
1120	28687	
1121	29051	
1122	29261	
1123	29375	
1124	29473	
1125	29609	
1126	29782	
1127	29946	
1128	30049	
1129	30073	
1130	30043	
1131	30009	
1132	30006	
1133	30034	
1134	30064	
1135	30068	
1136	30041	
1137	30006	
1138	29987	
1139	29994	
1140	30016	
1141	30031	
1142	30029	
1143	30017	
1144	30008	
1145	30012	
1146	30024	
1147	30027	
1148	30012	
1149	29982	
1150	29954	
1151	29947	
1152	29967	
1153	29998	
1154	30017	
1155	30013	
1156	29992	
1157	29976	
1158	29986	
1159	30021	
1160	30062	
1161	30081	
1162	30064	
1163	30019	
1164	29973	
1165	29953	
1166	29971	
1167	30013	
1168	30051	
1169	30064	
1170	30052	
1171	30038	
1172	30047	
1173	30085	
1174	30135	
1175	30169	
1176	30170	
1177	30142	
1178	30112	
1179	30103	
1180	30122	
1181	30152	
1182	30172	
1183	30168	
1184	30149	
1185	30132	
1186	30130	
1187	30143	
1188	30157	
1189	30160	
1190	30148	
1191	30134	
1192	30131	
1193	30146	
1194	30172	
1195	30195	
1196	30205	
1197	30201	
1198	30190	
1199	30182	
1200	30180	
1201	30177	
1202	30169	
1203	30154	
1204	30141	
1205	30141	
1206	30159	
1207	30191	
1208	30223	
1209	30244	
1210	30249	
1211	30245	
1212	30238	
1213	30231	
1214	30224	
1215	30213	
1216	30203	
1217	30200	
1218	30212	
1219	30239	
1220	30270	
1221	30292	
1222	30299	
1223	30296	
1224	30295	
1225	30305	
1226	30325	
1227	30342	
1228	30339	
1229	30315	
1230	30283	
1231	30260	
1232	30260	
1233	30278	
1234	30300	
1235	30314	
1236	30316	
1237	30315	
1238	30316	
1239	30321	
1240	30323	
1241	30317	
1242	30307	
1243	30302	
1244	30309	
1245	30330	
1246	30358	
1247	30384	
1248	30401	
1249	30407	
1250	30409	
1251	30414	
1252	30425	
1253	30442	
1254	30458	
1255	30468	
1256	30468	
1257	30457	
1258	30439	
1259	30418	
1260	30402	
1261	30394	
1262	30398	
1263	30411	
1264	30429	
1265	30446	
1266	30460	
1267	30473	
1268	30487	
1269	30505	
1270	30525	
1271	30546	
1272	30562	
1273	30572	
1274	30576	
1275	30577	
1276	30579	
1277	30583	
1278	30588	
1279	30593	
1280	30596	
1281	30597	
1282	30598	
1283	30600	
1284	30601	
1285	30603	
1286	30606	
1287	30612	
1288	30624	
1289	30642	
1290	30666	
1291	30692	
1292	30716	
1293	30735	
1294	30747	
1295	30751	
1296	30752	
1297	30755	
1298	30763	
1299	30776	
1300	30792	
1301	30808	
1302	30825	
1303	30843	
1304	30867	
1305	30897	
1306	30933	
1307	30970	
1308	31007	
1309	31037	
1310	31057	
1311	31065	
1312	31064	
1313	31062	
1314	31069	
1315	31090	
1316	31119	
1317	31148	
1318	31167	
1319	31175	
1320	31179	
1321	31184	
1322	31193	
1323	31204	
1324	31216	
1325	31235	
1326	31270	
1327	31324	
1328	31390	
1329	31451	
1330	31492	
1331	31510	
1332	31522	
1333	31549	
1334	31606	
1335	31684	
1336	31754	
1337	31789	
1338	31778	
1339	31737	
1340	31697	
1341	31689	
1342	31722	
1343	31784	
1344	31851	
1345	31902	
1346	31931	
1347	31947	
1348	31963	
1349	31991	
1350	32035	
1351	32091	
1352	32148	
1353	32193	
1354	32220	
1355	32228	
1356	32225	
1357	32227	
1358	32242	
1359	32274	
1360	32314	
1361	32352	
1362	32379	
1363	32394	
1364	32405	
1365	32421	
1366	32443	
1367	32466	
1368	32480	
1369	32482	
1370	32475	
1371	32470	
1372	32479	
1373	32503	
1374	32534	
1375	32553	
1376	32550	
1377	32520	
1378	32476	
1379	32432	
1380	32401	
1381	32388	
1382	32384	
1383	32380	
1384	32367	
1385	32346	
1386	32321	
1387	32298	
1388	32282	
1389	32271	
1390	32260	
1391	32241	
1392	32210	
1393	32166	
1394	32111	
1395	32051	
1396	31989	
1397	31927	
1398	31869	
1399	31814	
1400	31767	
1401	31728	
1402	31699	
1403	31675	
1404	31649	
1405	31612	
1406	31561	
1407	31503	
1408	31448	
1409	31409	
1410	31389	
1411	31382	
1412	31372	
1413	31346	
1414	31300	
1415	31239	
1416	31179	
1417	31130	
1418	31096	
1419	31069	
1420	31041	
1421	31006	
1422	30971	
1423	30944	
1424	30932	
1425	30932	
1426	30933	
1427	30922	
1428	30897	
1429	30864	
1430	30835	
1431	30821	
1432	30820	
1433	30818	
1434	30805	
1435	30775	
1436	30734	
1437	30692	
1438	30659	
1439	30636	
1440	30616	
1441	30595	
1442	30577	
1443	30568	
1444	30573	
1445	30591	
1446	30610	
1447	30618	
1448	30610	
1449	30594	
1450	30582	
1451	30582	
1452	30593	
1453	30605	
1454	30609	
1455	30598	
1456	30576	
1457	30551	
1458	30533	
1459	30529	
1460	30540	
1461	30560	
1462	30578	
1463	30583	
1464	30571	
1465	30546	
1466	30522	
1467	30514	
1468	30529	
1469	30564	
1470	30606	
1471	30639	
1472	30653	
1473	30648	
1474	30630	
1475	30612	
1476	30602	
1477	30601	
1478	30607	
1479	30615	
1480	30622	
1481	30630	
1482	30643	
1483	30662	
1484	30687	
1485	30711	
1486	30728	
1487	30734	
1488	30729	
1489	30717	
1490	30707	
1491	30705	
1492	30712	
1493	30724	
1494	30734	
1495	30735	
1496	30729	
1497	30724	
1498	30729	
1499	30744	
1500	30764	
1501	30781	
1502	30788	
1503	30788	
1504	30787	
1505	30790	
1506	30796	
1507	30804	
1508	30808	
1509	30807	
1510	30804	
1511	30802	
1512	30803	
1513	30807	
1514	30812	
1515	30812	
1516	30808	
1517	30801	
1518	30795	
1519	30792	
1520	30794	
1521	30799	
1522	30802	
1523	30803	
1524	30801	
1525	30798	
1526	30797	
1527	30803	
1528	30820	
1529	30850	
1530	30887	
1531	30920	
1532	30939	
1533	30937	
1534	30923	
1535	30909	
1536	30907	
1537	30917	
1538	30931	
1539	30938	
1540	30935	
1541	30929	
1542	30930	
1543	30943	
1544	30961	
1545	30972	
1546	30972	
1547	30963	
1548	30959	
1549	30966	
1550	30982	
1551	30994	
1552	30988	
1553	30962	
1554	30929	
1555	30910	
1556	30917	
1557	30943	
1558	30968	
1559	30970	
1560	30943	
1561	30902	
1562	30872	
1563	30872	
1564	30899	
1565	30938	
1566	30968	
1567	30981	
1568	30983	
1569	30985	
1570	30994	
1571	31008	
1572	31014	
1573	31007	
1574	30984	
1575	30953	
1576	30926	
1577	30912	
1578	30915	
1579	30930	
1580	30949	
1581	30962	
1582	30966	
1583	30960	
1584	30951	
1585	30942	
1586	30938	
1587	30938	
1588	30946	
1589	30965	
1590	30995	
1591	31029	
1592	31052	
1593	31051	
1594	31021	
1595	30976	
1596	30938	
1597	30926	
1598	30949	
1599	30995	
1600	31041	
1601	31068	
1602	31067	
1603	31048	
1604	31026	
1605	31015	
1606	31018	
1607	31028	
1608	31034	
1609	31031	
1610	31023	
1611	31018	
1612	31022	
1613	31035	
1614	31051	
1615	31060	
1616	31058	
1617	31050	
1618	31040	
1619	31038	
1620	31047	
1621	31063	
1622	31079	
1623	31085	
1624	31076	
1625	31057	
1626	31036	
1627	31024	
1628	31025	
1629	31033	
1630	31044	
1631	31052	
1632	31056	
1633	31056	
1634	31051	
1635	31041	
1636	31027	
1637	31015	
1638	31013	
1639	31023	
1640	31040	
1641	31056	
1642	31061	
1643	31057	
1644	31055	
1645	31068	
1646	31100	
1647	31146	
1648	31190	
1649	31222	
1650	31236	
1651	31240	
1652	31244	
1653	31255	
1654	31272	
1655	31286	
1656	31285	
1657	31268	
1658	31242	
1659	31220	
1660	31216	
1661	31233	
1662	31260	
1663	31283	
1664	31289	
1665	31279	
1666	31266	
1667	31269	
1668	31300	
1669	31356	
1670	31422	
1671	31478	
1672	31511	
1673	31523	
1674	31522	
1675	31520	
1676	31521	
1677	31523	
1678	31522	
1679	31517	
1680	31511	
1681	31506	
1682	31503	
1683	31499	
1684	31494	
1685	31488	
1686	31485	
1687	31487	
1688	31495	
1689	31505	
1690	31510	
1691	31510	
1692	31506	
1693	31503	
1694	31502	
1695	31500	
1696	31493	
1697	31479	
1698	31465	
1699	31461	
1700	31475	
1701	31504	
1702	31534	
1703	31548	
1704	31534	
1705	31499	
1706	31457	
1707	31427	
1708	31415	
1709	31414	
1710	31409	
1711	31387	
1712	31350	
1713	31311	
1714	31286	
1715	31286	
1716	31307	
1717	31338	
1718	31362	
1719	31374	
1720	31377	
1721	31382	
1722	31395	
1723	31411	
1724	31420	
1725	31410	
1726	31383	
1727	31346	
1728	31313	
1729	31292	
1730	31284	
1731	31280	
1732	31271	
1733	31255	
1734	31234	
1735	31211	
1736	31190	
1737	31171	
1738	31152	
1739	31131	
1740	31108	
1741	31087	
1742	31070	
1743	31061	
1744	31059	
1745	31065	
1746	31079	
1747	31104	
1748	31139	
1749	31178	
1750	31209	
1751	31222	
1752	31210	
1753	31177	
1754	31135	
1755	31097	
1756	31071	
1757	31059	
1758	31056	
1759	31058	
1760	31060	
1761	31064	
1762	31070	
1763	31078	
1764	31088	
1765	31100	
1766	31113	
1767	31125	
1768	31135	
1769	31143	
1770	31148	
1771	31155	
1772	31168	
1773	31189	
1774	31214	
1775	31237	
1776	31247	
1777	31240	
1778	31221	
1779	31200	
1780	31192	
1781	31204	
1782	31232	
1783	31264	
1784	31284	
1785	31280	
1786	31253	
1787	31212	
1788	31174	
1789	31152	
1790	31153	
1791	31172	
1792	31199	
1793	31220	
1794	31224	
1795	31211	
1796	31186	
1797	31164	
1798	31157	
1799	31167	
1800	31184	
1801	31191	
1802	31172	
1803	31123	
1804	31052	
1805	30968	
1806	30864	
1807	30720	
1808	30506	
1809	30209	
1810	29845	
1811	29464	
1812	29132	
1813	28906	
1814	28812	
1815	28828	
1816	28898	
1817	28960	
1818	28973	
1819	28937	
1820	28885	
1821	28860	
1822	28879	
1823	28918	
1824	28926	
1825	28859	
1826	28721	
1827	28577	
1828	28527	
1829	28661	
1830	29005	
1831	29506	
1832	30051	
1833	30520	
1834	30838	
1835	31006	
1836	31080	
1837	31136	
1838	31222	
1839	31337	
1840	31445	
1841	31506	
1842	31511	
1843	31478	
1844	31446	
1845	31439	
1846	31457	
1847	31479	
1848	31480	
1849	31452	
1850	31402	
1851	31351	
1852	31314	
1853	31294	
1854	31287	
1855	31286	
1856	31289	
1857	31297	
1858	31309	
1859	31314	
1860	31299	
1861	31258	
1862	31202	
1863	31151	
1864	31128	
1865	31137	
1866	31164	
1867	31188	
1868	31199	
1869	31204	
1870	31221	
1871	31262	
1872	31318	
1873	31361	
1874	31361	
1875	31311	
1876	31235	
1877	31175	
1878	31164	
1879	31202	
1880	31259	
1881	31296	
1882	31295	
1883	31267	
1884	31243	
1885	31248	
1886	31280	
1887	31319	
1888	31343	
1889	31348	
1890	31352	
1891	31380	
1892	31438	
1893	31506	
1894	31552	
1895	31546	
1896	31491	
1897	31413	
1898	31352	
1899	31329	
1900	31344	
1901	31373	
1902	31390	
1903	31386	
1904	31366	
1905	31349	
1906	31346	
1907	31357	
1908	31375	
1909	31392	
1910	31404	
1911	31414	
1912	31423	
1913	31431	
1914	31432	
1915	31425	
1916	31411	
1917	31397	
1918	31388	
1919	31386	
1920	31392	
1921	31404	
1922	31421	
1923	31442	
1924	31466	
1925	31486	
1926	31497	
1927	31497	
1928	31490	
1929	31485	
1930	31485	
1931	31489	
1932	31490	
1933	31484	
1934	31476	
1935	31478	
1936	31497	
1937	31530	
1938	31564	
1939	31582	
1940	31576	
1941	31556	
1942	31537	
1943	31533	
1944	31544	
1945	31559	
1946	31569	
1947	31570	
1948	31572	
1949	31585	
1950	31611	
1951	31642	
1952	31664	
1953	31668	
1954	31656	
1955	31639	
1956	31627	
1957	31625	
1958	31628	
1959	31629	
1960	31623	
1961	31609	
1962	31594	
1963	31586	
1964	31589	
1965	31605	
1966	31630	
1967	31660	
1968	31690	
1969	31716	
1970	31736	
1971	31746	
1972	31745	
1973	31731	
1974	31705	
1975	31673	
1976	31642	
1977	31621	
1978	31618	
1979	31635	
1980	31669	
1981	31711	
1982	31752	
1983	31780	
1984	31792	
1985	31788	
1986	31775	
1987	31762	
1988	31759	
1989	31767	
1990	31783	
1991	31798	
1992	31808	
1993	31811	
1994	31811	
1995	31811	
1996	31811	
1997	31812	
1998	31813	
1999	31819	
2000	31833	
2001	31856	
2002	31882	
2003	31905	
2004	31918	
2005	31923	
2006	31926	
2007	31936	
2008	31954	
2009	31978	
2010	32000	
2011	32014	
2012	32019	
2013	32019	
2014	32022	
2015	32033	
2016	32053	
2017	32079	
2018	32103	
2019	32116	
2020	32111	
2021	32089	
2022	32060	
2023	32040	
2024	32044	
2025	32080	
2026	32141	
2027	32209	
2028	32268	
2029	32308	
2030	32332	
2031	32347	
2032	32357	
2033	32363	
2034	32362	
2035	32357	
2036	32353	
2037	32362	
2038	32391	
2039	32437	
2040	32490	
2041	32537	
2042	32574	
2043	32602	
2044	32632	
2045	32668	
2046	32709	
2047	32745	
2048	32768	
2049	32776	
2050	32776	
2051	32780	
2052	32798	
2053	32829	
2054	32863	
2055	32893	
2056	32914	
2057	32929	
2058	32947	
2059	32973	
2060	33008	
2061	33046	
2062	33083	
2063	33117	
2064	33149	
2065	33182	
2066	33219	
2067	33256	
2068	33290	
2069	33318	
2070	33339	
2071	33356	
2072	33371	
2073	33384	
2074	33393	
2075	33395	
2076	33390	
2077	33382	
2078	33376	
2079	33377	
2080	33386	
2081	33401	
2082	33417	
2083	33430	
2084	33437	
2085	33436	
2086	33429	
2087	33418	
2088	33407	
2089	33399	
2090	33395	
2091	33394	
2092	33390	
2093	33379	
2094	33355	
2095	33319	
2096	33277	
2097	33235	
2098	33199	
2099	33170	
2100	33144	
2101	33118	
2102	33088	
2103	33060	
2104	33036	
2105	33020	
2106	33007	
2107	32988	
2108	32955	
2109	32904	
2110	32841	
2111	32776	
2112	32721	
2113	32681	
2114	32655	
2115	32633	
2116	32604	
2117	32566	
2118	32522	
2119	32483	
2120	32458	
2121	32449	
2122	32448	
2123	32438	
2124	32404	
2125	32342	
2126	32260	
2127	32180	
2128	32119	
2129	32083	
2130	32065	
2131	32048	
2132	32019	
2133	31977	
2134	31933	
2135	31900	
2136	31886	
2137	31885	
2138	31883	
2139	31864	
2140	31824	
2141	31773	
2142	31726	
2143	31696	
2144	31686	
2145	31685	
2146	31680	
2147	31662	
2148	31632	
2149	31601	
2150	31580	
2151	31571	
2152	31568	
2153	31560	
2154	31540	
2155	31514	
2156	31491	
2157	31483	
2158	31492	
2159	31508	
2160	31517	
2161	31510	
2162	31486	
2163	31459	
2164	31442	
2165	31443	
2166	31459	
2167	31478	
2168	31491	
2169	31493	
2170	31488	
2171	31478	
2172	31469	
2173	31458	
2174	31445	
2175	31434	
2176	31431	
2177	31445	
2178	31474	
2179	31510	
2180	31537	
2181	31543	
2182	31529	
2183	31508	
2184	31498	
2185	31508	
2186	31536	
2187	31568	
2188	31588	
2189	31588	
2190	31574	
2191	31558	
2192	31552	
2193	31562	
2194	31583	
2195	31609	
2196	31634	
2197	31656	
2198	31674	
2199	31686	
2200	31688	
2201	31676	
2202	31653	
2203	31626	
2204	31608	
2205	31607	
2206	31626	
2207	31656	
2208	31683	
2209	31697	
2210	31699	
2211	31697	
2212	31705	
2213	31729	
2214	31766	
2215	31803	
2216	31824	
2217	31822	
2218	31799	
2219	31765	
2220	31734	
2221	31713	
2222	31707	
2223	31716	
2224	31737	
2225	31765	
2226	31792	
2227	31813	
2228	31823	
2229	31827	
2230	31832	
2231	31844	
2232	31865	
2233	31890	
2234	31907	
2235	31908	
2236	31893	
2237	31867	
2238	31843	
2239	31829	
2240	31831	
2241	31847	
2242	31873	
2243	31898	
2244	31915	
2245	31919	
2246	31907	
2247	31885	
2248	31864	
2249	31856	
2250	31868	
2251	31900	
2252	31940	
2253	31974	
2254	31988	
2255	31979	
2256	31952	
2257	31918	
2258	31887	
2259	31865	
2260	31853	
2261	31854	
2262	31865	
2263	31885	
2264	31911	
2265	31936	
2266	31956	
2267	31966	
2268	31968	
2269	31965	
2270	31962	
2271	31959	
2272	31956	
2273	31950	
2274	31940	
2275	31929	
2276	31920	
2277	31918	
2278	31926	
2279	31939	
2280	31952	
2281	31958	
2282	31953	
2283	31938	
2284	31921	
2285	31906	
2286	31899	
2287	31901	
2288	31909	
2289	31916	
2290	31918	
2291	31913	
2292	31903	
2293	31891	
2294	31878	
2295	31866	
2296	31854	
2297	31843	
2298	31837	
2299	31838	
2300	31845	
2301	31854	
2302	31860	
2303	31860	
2304	31855	
2305	31847	
2306	31839	
2307	31833	
2308	31827	
2309	31820	
2310	31813	
2311	31809	
2312	31808	
2313	31812	
2314	31817	
2315	31824	
2316	31832	
2317	31843	
2318	31857	
2319	31867	
2320	31866	
2321	31850	
2322	31820	
2323	31787	
2324	31765	
2325	31757	
2326	31763	
2327	31771	
2328	31776	
2329	31776	
2330	31778	
2331	31785	
2332	31797	
2333	31806	
2334	31808	
2335	31800	
2336	31787	
2337	31776	
2338	31771	
2339	31773	
2340	31777	
2341	31781	
2342	31784	
2343	31786	
2344	31790	
2345	31797	
2346	31804	
2347	31811	
2348	31816	
2349	31820	
2350	31825	
2351	31835	
2352	31854	
2353	31883	
2354	31918	
2355	31951	
2356	31966	
2357	31956	
2358	31922	
2359	31879	
2360	31847	
2361	31845	
2362	31876	
2363	31925	
2364	31974	
2365	32004	
2366	32010	
2367	32001	
2368	31991	
2369	31993	
2370	32015	
2371	32055	
2372	32107	
2373	32160	
2374	32200	
2375	32218	
2376	32211	
2377	32182	
2378	32146	
2379	32116	
2380	32102	
2381	32105	
2382	32116	
2383	32127	
2384	32134	
2385	32138	
2386	32143	
2387	32149	
2388	32154	
2389	32153	
2390	32144	
2391	32129	
2392	32115	
2393	32108	
2394	32108	
2395	32111	
2396	32111	
2397	32104	
2398	32091	
2399	32079	
2400	32076	
2401	32088	
2402	32111	
2403	32138	
2404	32157	
2405	32158	
2406	32140	
2407	32110	
2408	32079	
2409	32057	
2410	32044	
2411	32036	
2412	32022	
2413	31997	
2414	31964	
2415	31930	
2416	31906	
2417	31896	
2418	31895	
2419	31898	
2420	31899	
2421	31896	
2422	31894	
2423	31897	
2424	31904	
2425	31910	
2426	31911	
2427	31904	
2428	31890	
2429	31873	
2430	31857	
2431	31846	
2432	31838	
2433	31832	
2434	31824	
2435	31812	
2436	31794	
2437	31769	
2438	31741	
2439	31715	
2440	31695	
2441	31683	
2442	31676	
2443	31668	
2444	31655	
2445	31636	
2446	31615	
2447	31604	
2448	31610	
2449	31633	
2450	31664	
2451	31690	
2452	31699	
2453	31691	
2454	31672	
2455	31655	
2456	31652	
2457	31663	
2458	31685	
2459	31706	
2460	31718	
2461	31717	
2462	31704	
2463	31688	
2464	31679	
2465	31683	
2466	31699	
2467	31722	
2468	31744	
2469	31760	
2470	31768	
2471	31768	
2472	31765	
2473	31759	
2474	31753	
2475	31746	
2476	31737	
2477	31725	
2478	31709	
2479	31690	
2480	31673	
2481	31663	
2482	31662	
2483	31671	
2484	31686	
2485	31702	
2486	31715	
2487	31723	
2488	31729	
2489	31733	
2490	31736	
2491	31740	
2492	31745	
2493	31751	
2494	31758	
2495	31765	
2496	31773	
2497	31783	
2498	31801	
2499	31832	
2500	31879	
2501	31940	
2502	32005	
2503	32063	
2504	32103	
2505	32118	
2506	32109	
2507	32078	
2508	32023	
2509	31932	
2510	31777	
2511	31530	
2512	31168	
2513	30703	
2514	30183	
2515	29686	
2516	29291	
2517	29042	
2518	28926	
2519	28882	
2520	28833	
2521	28727	
2522	28565	
2523	28391	
2524	28259	
2525	28188	
2526	28147	
2527	28072	
2528	27912	
2529	27677	
2530	27452	
2531	27364	
2532	27511	
2533	27912	
2534	28487	
2535	29101	
2536	29630	
2537	30017	
2538	30282	
2539	30491	
2540	30696	
2541	30909	
2542	31102	
2543	31242	
2544	31319	
2545	31357	
2546	31389	
2547	31438	
2548	31501	
2549	31558	
2550	31594	
2551	31610	
2552	31623	
2553	31647	
2554	31683	
2555	31719	
2556	31742	
2557	31749	
2558	31751	
2559	31757	
2560	31773	
2561	31788	
2562	31791	
2563	31774	
2564	31747	
2565	31726	
2566	31726	
2567	31750	
2568	31786	
2569	31819	
2570	31836	
2571	31840	
2572	31841	
2573	31847	
2574	31860	
2575	31871	
2576	31870	
2577	31853	
2578	31829	
2579	31807	
2580	31796	
2581	31797	
2582	31802	
2583	31804	
2584	31801	
2585	31796	
2586	31795	
2587	31803	
2588	31821	
2589	31844	
2590	31867	
2591	31885	
2592	31897	
2593	31904	
2594	31910	
2595	31917	
2596	31923	
2597	31927	
2598	31930	
2599	31932	
2600	31937	
2601	31946	
2602	31959	
2603	31971	
2604	31980	
2605	31987	
2606	31997	
2607	32012	
2608	32030	
2609	32044	
2610	32048	
2611	32038	
2612	32020	
2613	32003	
2614	31996	
2615	32002	
2616	32015	
2617	32028	
2618	32034	
2619	32030	
2620	32022	
2621	32016	
2622	32016	
2623	32023	
2624	32034	
2625	32047	
2626	32056	
2627	32064	
2628	32071	
2629	32081	
2630	32096	
2631	32114	
2632	32129	
2633	32135	
2634	32126	
2635	32100	
2636	32065	
2637	32032	
2638	32015	
2639	32025	
2640	32060	
2641	32111	
2642	32160	
2643	32192	
2644	32200	
2645	32189	
2646	32170	
2647	32156	
2648	32153	
2649	32155	
2650	32155	
2651	32145	
2652	32126	
2653	32107	
2654	32099	
2655	32106	
2656	32126	
2657	32151	
2658	32170	
2659	32180	
2660	32182	
2661	32181	
2662	32183	
2663	32192	
2664	32206	
2665	32222	
2666	32237	
2667	32248	
2668	32258	
2669	32268	
2670	32278	
2671	32287	
2672	32291	
2673	32290	
2674	32287	
2675	32285	
2676	32286	
2677	32288	
2678	32290	
2679	32288	
2680	32285	
2681	32290	
2682	32308	
2683	32339	
2684	32373	
2685	32398	
2686	32402	
2687	32387	
2688	32365	
2689	32354	
2690	32368	
2691	32410	
2692	32465	
2693	32512	
2694	32535	
2695	32528	
2696	32499	
2697	32466	
2698	32444	
2699	32440	
2700	32451	
2701	32470	
2702	32488	
2703	32500	
2704	32507	
2705	32511	
2706	32516	
2707	32524	
2708	32538	
2709	32555	
2710	32574	
2711	32591	
2712	32604	
2713	32613	
2714	32618	
2715	32624	
2716	32632	
2717	32642	
2718	32651	
2719	32659	
2720	32665	
2721	32673	
2722	32686	
2723	32705	
2724	32729	
2725	32752	
2726	32768	
2727	32776	
2728	32775	
2729	32773	
2730	32778	
2731	32796	
2732	32828	
2733	32871	
2734	32919	
2735	32963	
2736	32997	
2737	33018	
2738	33026	
2739	33026	
2740	33024	
2741	33028	
2742	33040	
2743	33062	
2744	33087	
2745	33106	
2746	33114	
2747	33111	
2748	33108	
2749	33119	
2750	33154	
2751	33216	
2752	33298	
2753	33384	
2754	33460	
2755	33519	
2756	33561	
2757	33592	
2758	33619	
2759	33645	
2760	33670	
2761	33695	
2762	33720	
2763	33750	
2764	33789	
2765	33835	
2766	33886	
2767	33935	
2768	33981	
2769	34024	
2770	34063	
2771	34095	
2772	34117	
2773	34123	
2774	34115	
2775	34102	
2776	34098	
2777	34111	
2778	34140	
2779	34174	
2780	34195	
2781	34194	
2782	34172	
2783	34146	
2784	34133	
2785	34144	
2786	34176	
2787	34214	
2788	34241	
2789	34249	
2790	34241	
2791	34226	
2792	34215	
2793	34212	
2794	34212	
2795	34208	
2796	34193	
2797	34163	
2798	34122	
2799	34079	
2800	34041	
2801	34017	
2802	34004	
2803	33997	
2804	33988	
2805	33967	
2806	33932	
2807	33890	
2808	33852	
2809	33824	
2810	33808	
2811	33792	
2812	33763	
2813	33713	
2814	33645	
2815	33572	
2816	33506	
2817	33451	
2818	33407	
2819	33366	
2820	33323	
2821	33276	
2822	33226	
2823	33172	
2824	33114	
2825	33052	
2826	32989	
2827	32934	
2828	32893	
2829	32866	
2830	32849	
2831	32831	
2832	32806	
2833	32775	
2834	32743	
2835	32715	
2836	32691	
2837	32666	
2838	32631	
2839	32581	
2840	32523	
2841	32466	
2842	32425	
2843	32403	
2844	32394	
2845	32387	
2846	32372	
2847	32345	
2848	32313	
2849	32287	
2850	32272	
2851	32267	
2852	32262	
2853	32246	
2854	32217	
2855	32177	
2856	32139	
2857	32114	
2858	32106	
2859	32110	
2860	32116	
2861	32112	
2862	32098	
2863	32080	
2864	32070	
2865	32078	
2866	32100	
2867	32126	
2868	32137	
2869	32123	
2870	32087	
2871	32044	
2872	32014	
2873	32008	
2874	32027	
2875	32056	
2876	32077	
2877	32078	
2878	32061	
2879	32036	
2880	32019	
2881	32018	
2882	32035	
2883	32064	
2884	32099	
2885	32131	
2886	32158	
2887	32177	
2888	32187	
2889	32188	
2890	32183	
2891	32182	
2892	32190	
2893	32210	
2894	32234	
2895	32250	
2896	32247	
2897	32222	
2898	32188	
2899	32159	
2900	32150	
2901	32162	
2902	32186	
2903	32208	
2904	32219	
2905	32220	
2906	32216	
2907	32215	
2908	32220	
2909	32225	
2910	32224	
2911	32214	
2912	32198	
2913	32184	
2914	32178	
2915	32183	
2916	32193	
2917	32202	
2918	32203	
2919	32194	
2920	32180	
2921	32168	
2922	32162	
2923	32163	
2924	32169	
2925	32178	
2926	32189	
2927	32202	
2928	32217	
2929	32230	
2930	32238	
2931	32238	
2932	32234	
2933	32232	
2934	32241	
2935	32261	
2936	32286	
2937	32305	
2938	32308	
2939	32293	
2940	32266	
2941	32237	
2942	32218	
2943	32215	
2944	32230	
2945	32258	
2946	32288	
2947	32314	
2948	32328	
2949	32334	
2950	32340	
2951	32352	
2952	32375	
2953	32402	
2954	32420	
2955	32418	
2956	32390	
2957	32348	
2958	32309	
2959	32291	
2960	32300	
2961	32326	
2962	32352	
2963	32361	
2964	32348	
2965	32323	
2966	32303	
2967	32304	
2968	32329	
2969	32368	
2970	32409	
2971	32440	
2972	32456	
2973	32459	
2974	32454	
2975	32446	
2976	32436	
2977	32427	
2978	32420	
2979	32421	
2980	32428	
2981	32441	
2982	32453	
2983	32459	
2984	32457	
2985	32450	
2986	32447	
2987	32450	
2988	32460	
2989	32474	
2990	32486	
2991	32494	
2992	32498	
2993	32500	
2994	32497	
2995	32488	
2996	32469	
2997	32441	
2998	32411	
2999	32386	
3000	32371	
3001	32369	
3002	32375	
3003	32384	
3004	32390	
3005	32392	
3006	32392	
3007	32393	
3008	32394	
3009	32397	
3010	32401	
3011	32405	
3012	32412	
3013	32420	
3014	32426	
3015	32424	
3016	32413	
3017	32394	
3018	32374	
3019	32362	
3020	32361	
3021	32369	
3022	32376	
3023	32375	
3024	32369	
3025	32365	
3026	32376	
3027	32405	
3028	32443	
3029	32475	
3030	32485	
3031	32469	
3032	32435	
3033	32399	
3034	32372	
3035	32356	
3036	32345	
3037	32328	
3038	32301	
3039	32272	
3040	32251	
3041	32249	
3042	32265	
3043	32289	
3044	32306	
3045	32305	
3046	32287	
3047	32264	
3048	32250	
3049	32254	
3050	32275	
3051	32299	
3052	32313	
3053	32312	
3054	32302	
3055	32296	
3056	32306	
3057	32332	
3058	32360	
3059	32375	
3060	32370	
3061	32351	
3062	32339	
3063	32350	
3064	32387	
3065	32437	
3066	32478	
3067	32497	
3068	32494	
3069	32485	
3070	32485	
3071	32497	
3072	32511	
3073	32509	
3074	32483	
3075	32446	
3076	32421	
3077	32432	
3078	32481	
3079	32547	
3080	32597	
3081	32611	
3082	32592	
3083	32572	
3084	32582	
3085	32637	
3086	32722	
3087	32798	
3088	32832	
3089	32816	
3090	32775	
3091	32744	
3092	32749	
3093	32787	
3094	32829	
3095	32846	
3096	32825	
3097	32779	
3098	32738	
3099	32725	
3100	32742	
3101	32769	
3102	32783	
3103	32774	
3104	32753	
3105	32738	
3106	32743	
3107	32765	
3108	32788	
3109	32797	
3110	32789	
3111	32777	
3112	32774	
3113	32785	
3114	32802	
3115	32808	
3116	32795	
3117	32766	
3118	32740	
3119	32730	
3120	32739	
3121	32755	
3122	32757	
3123	32735	
3124	32694	
3125	32647	
3126	32610	
3127	32590	
3128	32583	
3129	32582	
3130	32583	
3131	32586	
3132	32596	
3133	32608	
3134	32612	
3135	32599	
3136	32566	
3137	32528	
3138	32506	
3139	32515	
3140	32555	
3141	32604	
3142	32634	
3143	32628	
3144	32584	
3145	32524	
3146	32473	
3147	32445	
3148	32440	
3149	32444	
3150	32442	
3151	32430	
3152	32415	
3153	32409	
3154	32417	
3155	32433	
3156	32443	
3157	32437	
3158	32411	
3159	32374	
3160	32344	
3161	32334	
3162	32348	
3163	32378	
3164	32410	
3165	32432	
3166	32438	
3167	32430	
3168	32417	
3169	32409	
3170	32413	
3171	32429	
3172	32451	
3173	32469	
3174	32470	
3175	32452	
3176	32418	
3177	32383	
3178	32361	
3179	32362	
3180	32381	
3181	32410	
3182	32437	
3183	32454	
3184	32461	
3185	32465	
3186	32471	
3187	32478	
3188	32483	
3189	32482	
3190	32475	
3191	32469	
3192	32471	
3193	32484	
3194	32502	
3195	32514	
3196	32507	
3197	32480	
3198	32441	
3199	32408	
3200	32394	
3201	32399	
3202	32415	
3203	32429	
3204	32435	
3205	32441	
3206	32459	
3207	32504	
3208	32575	
3209	32657	
3210	32730	
3211	32778	
3212	32797	
3213	32795	
3214	32781	
3215	32763	
3216	32740	
3217	32706	
3218	32656	
3219	32585	
3220	32481	
3221	32320	
3222	32070	
3223	31707	
3224	31235	
3225	30701	
3226	30190	
3227	29791	
3228	29560	
3229	29488	
3230	29506	
3231	29518	
3232	29455	
3233	29307	
3234	29123	
3235	28973	
3236	28900	
3237	28888	
3238	28874	
3239	28793	
3240	28634	
3241	28460	
3242	28385	
3243	28517	
3244	28889	
3245	29444	
3246	30057	
3247	30600	
3248	31000	
3249	31262	
3250	31444	
3251	31611	
3252	31800	
3253	32002	
3254	32187	
3255	32330	
3256	32426	
3257	32492	
3258	32548	
3259	32602	
3260	32651	
3261	32683	
3262	32695	
3263	32694	
3264	32695	
3265	32708	
3266	32734	
3267	32765	
3268	32790	
3269	32805	
3270	32811	
3271	32814	
3272	32817	
3273	32818	
3274	32814	
3275	32803	
3276	32791	
3277	32785	
3278	32786	
3279	32792	
3280	32796	
3281	32791	
3282	32779	
3283	32768	
3284	32768	
3285	32784	
3286	32809	
3287	32833	
3288	32846	
3289	32849	
3290	32850	
3291	32857	
3292	32874	
3293	32893	
3294	32903	
3295	32897	
3296	32882	
3297	32874	
3298	32885	
3299	32917	
3300	32955	
3301	32981	
3302	32980	
3303	32954	
3304	32922	
3305	32904	
3306	32911	
3307	32941	
3308	32981	
3309	33017	
3310	33043	
3311	33061	
3312	33074	
3313	33082	
3314	33082	
3315	33073	
3316	33060	
3317	33050	
3318	33054	
3319	33071	
3320	33089	
3321	33094	
3322	33075	
3323	33041	
3324	33013	
3325	33013	
3326	33049	
3327	33111	
3328	33169	
3329	33197	
3330	33185	
3331	33145	
3332	33100	
3333	33075	
3334	33077	
3335	33098	
3336	33121	
3337	33134	
3338	33134	
3339	33130	
3340	33131	
3341	33141	
3342	33156	
3343	33169	
3344	33173	
3345	33167	
3346	33154	
3347	33138	
3348	33125	
3349	33119	
3350	33126	
3351	33148	
3352	33182	
3353	33217	
3354	33239	
3355	33236	
3356	33208	
3357	33168	
3358	33136	
3359	33130	
3360	33155	
3361	33198	
3362	33242	
3363	33272	
3364	33288	
3365	33298	
3366	33314	
3367	33340	
3368	33370	
3369	33390	
3370	33390	
3371	33369	
3372	33339	
3373	33316	
3374	33310	
3375	33319	
3376	33335	
3377	33345	
3378	33344	
3379	33335	
3380	33326	
3381	33324	
3382	33330	
3383	33343	
3384	33357	
3385	33369	
3386	33376	
3387	33383	
3388	33391	
3389	33399	
3390	33408	
3391	33415	
3392	33419	
3393	33424	
3394	33430	
3395	33439	
3396	33449	
3397	33456	
3398	33456	
3399	33448	
3400	33433	
3401	33416	
3402	33405	
3403	33411	
3404	33437	
3405	33480	
3406	33531	
3407	33577	
3408	33607	
3409	33622	
3410	33628	
3411	33635	
3412	33650	
3413	33668	
3414	33681	
3415	33680	
3416	33665	
3417	33645	
3418	33635	
3419	33640	
3420	33659	
3421	33681	
3422	33697	
3423	33707	
3424	33720	
3425	33746	
3426	33787	
3427	33832	
3428	33866	
3429	33881	
3430	33881	
3431	33881	
3432	33898	
3433	33935	
3434	33979	
3435	34010	
3436	34017	
3437	34005	
3438	33991	
3439	33994	
3440	34021	
3441	34057	
3442	34086	
3443	34095	
3444	34091	
3445	34093	
3446	34118	
3447	34168	
3448	34229	
3449	34279	
3450	34306	
3451	34311	
3452	34308	
3453	34315	
3454	34339	
3455	34379	
3456	34425	
3457	34471	
3458	34516	
3459	34564	
3460	34617	
3461	34672	
3462	34719	
3463	34748	
3464	34759	
3465	34762	
3466	34771	
3467	34799	
3468	34845	
3469	34901	
3470	34952	
3471	34992	
3472	35025	
3473	35062	
3474	35108	
3475	35156	
3476	35189	
3477	35193	
3478	35168	
3479	35136	
3480	35122	
3481	35143	
3482	35196	
3483	35258	
3484	35306	
3485	35333	
3486	35345	
3487	35360	
3488	35388	
3489	35423	
3490	35453	
3491	35466	
3492	35460	
3493	35445	
3494	35437	
3495	35442	
3496	35460	
3497	35480	
3498	35494	
3499	35498	
3500	35495	
3501	35492	
3502	35493	
3503	35502	
3504	35513	
3505	35515	
3506	35500	
3507	35462	
3508	35409	
3509	35356	
3510	35320	
3511	35307	
3512	35309	
3513	35306	
3514	35285	
3515	35243	
3516	35194	
3517	35153	
3518	35121	
3519	35089	
3520	35040	
3521	34972	
3522	34898	
3523	34839	
3524	34808	
3525	34794	
3526	34772	
3527	34723	
3528	34651	
3529	34579	
3530	34533	
3531	34522	
3532	34526	
3533	34511	
3534	34453	
3535	34357	
3536	34249	
3537	34158	
3538	34100	
3539	34070	
3540	34047	
3541	34018	
3542	33979	
3543	33939	
3544	33904	
3545	33872	
3546	33835	
3547	33790	
3548	33739	
3549	33695	
3550	33668	
3551	33654	
3552	33641	
3553	33616	
3554	33573	
3555	33522	
3556	33480	
3557	33457	
3558	33451	
3559	33446	
3560	33431	
3561	33402	
3562	33367	
3563	33337	
3564	33316	
3565	33296	
3566	33267	
3567	33229	
3568	33193	
3569	33177	
3570	33189	
3571	33220	
3572	33248	
3573	33253	
3574	33235	
3575	33211	
3576	33206	
3577	33229	
3578	33267	
3579	33288	
3580	33270	
3581	33210	
3582	33136	
3583	33085	
3584	33080	
3585	33118	
3586	33169	
3587	33201	
3588	33196	
3589	33168	
3590	33141	
3591	33140	
3592	33165	
3593	33199	
3594	33217	
3595	33209	
3596	33183	
3597	33162	
3598	33163	
3599	33186	
3600	33214	
3601	33227	
3602	33214	
3603	33183	
3604	33154	
3605	33145	
3606	33161	
3607	33193	
3608	33223	
3609	33238	
3610	33235	
3611	33227	
3612	33227	
3613	33240	
3614	33264	
3615	33285	
3616	33293	
3617	33283	
3618	33259	
3619	33233	
3620	33216	
3621	33215	
3622	33225	
3623	33239	
3624	33248	
3625	33249	
3626	33245	
3627	33248	
3628	33266	
3629	33300	
3630	33340	
3631	33374	
3632	33392	
3633	33392	
3634	33382	
3635	33372	
3636	33367	
3637	33366	
3638	33363	
3639	33351	
3640	33331	
3641	33313	
3642	33307	
3643	33319	
3644	33343	
3645	33369	
3646	33385	
3647	33389	
3648	33388	
3649	33395	
3650	33417	
3651	33449	
3652	33478	
3653	33487	
3654	33470	
3655	33435	
3656	33398	
3657	33376	
3658	33377	
3659	33396	
3660	33420	
3661	33437	
3662	33440	
3663	33432	
3664	33417	
3665	33401	
3666	33391	
3667	33390	
3668	33399	
3669	33416	
3670	33436	
3671	33454	
3672	33465	
3673	33468	
3674	33465	
3675	33459	
3676	33453	
3677	33444	
3678	33432	
3679	33417	
3680	33402	
3681	33391	
3682	33391	
3683	33404	
3684	33429	
3685	33456	
3686	33478	
3687	33487	
3688	33481	
3689	33463	
3690	33441	
3691	33423	
3692	33413	
3693	33412	
3694	33415	
3695	33415	
3696	33405	
3697	33382	
3698	33350	
3699	33316	
3700	33294	
3701	33290	
3702	33309	
3703	33343	
3704	33382	
3705	33414	
3706	33435	
3707	33445	
3708	33449	
3709	33453	
3710	33456	
3711	33454	
3712	33443	
3713	33420	
3714	33387	
3715	33351	
3716	33320	
3717	33301	
3718	33296	
3719	33304	
3720	33317	
3721	33329	
3722	33337	
3723	33347	
3724	33365	
3725	33394	
3726	33430	
3727	33457	
3728	33463	
3729	33442	
3730	33405	
3731	33371	
3732	33360	
3733	33377	
3734	33412	
3735	33445	
3736	33458	
3737	33443	
3738	33410	
3739	33375	
3740	33358	
3741	33367	
3742	33396	
3743	33431	
3744	33456	
3745	33466	
3746	33466	
3747	33465	
3748	33473	
3749	33489	
3750	33504	
3751	33513	
3752	33512	
3753	33506	
3754	33505	
3755	33512	
3756	33529	
3757	33549	
3758	33569	
3759	33589	
3760	33613	
3761	33646	
3762	33686	
3763	33725	
3764	33751	
3765	33762	
3766	33766	
3767	33774	
3768	33794	
3769	33821	
3770	33840	
3771	33835	
3772	33802	
3773	33752	
3774	33712	
3775	33698	
3776	33714	
3777	33741	
3778	33753	
3779	33735	
3780	33693	
3781	33648	
3782	33625	
3783	33630	
3784	33652	
3785	33668	
3786	33662	
3787	33637	
3788	33608	
3789	33594	
3790	33600	
3791	33613	
3792	33615	
3793	33592	
3794	33547	
3795	33494	
3796	33445	
3797	33404	
3798	33364	
3799	33319	
3800	33270	
3801	33232	
3802	33219	
3803	33239	
3804	33281	
3805	33324	
3806	33351	
3807	33358	
3808	33356	
3809	33359	
3810	33374	
3811	33390	
3812	33391	
3813	33364	
3814	33314	
3815	33259	
3816	33220	
3817	33203	
3818	33200	
3819	33192	
3820	33163	
3821	33115	
3822	33061	
3823	33019	
3824	33000	
3825	33003	
3826	33018	
3827	33036	
3828	33051	
3829	33063	
3830	33072	
3831	33077	
3832	33071	
3833	33052	
3834	33023	
3835	32992	
3836	32970	
3837	32963	
3838	32967	
3839	32975	
3840	32977	
3841	32970	
3842	32957	
3843	32948	
3844	32952	
3845	32969	
3846	32994	
3847	33014	
3848	33021	
3849	33012	
3850	32994	
3851	32977	
3852	32969	
3853	32971	
3854	32977	
3855	32980	
3856	32974	
3857	32963	
3858	32951	
3859	32947	
3860	32951	
3861	32960	
3862	32968	
3863	32972	
3864	32971	
3865	32971	
3866	32981	
3867	33001	
3868	33029	
3869	33060	
3870	33086	
3871	33107	
3872	33123	
3873	33137	
3874	33148	
3875	33155	
3876	33154	
3877	33146	
3878	33136	
3879	33133	
3880	33142	
3881	33169	
3882	33211	
3883	33266	
3884	33333	
3885	33407	
3886	33486	
3887	33560	
3888	33619	
3889	33652	
3890	33658	
3891	33643	
3892	33614	
3893	33564	
3894	33470	
3895	33288	
3896	32977	
3897	32520	
3898	31947	
3899	31333	
3900	30770	
3901	30335	
3902	30052	
3903	29888	
3904	29771	
3905	29631	
3906	29436	
3907	29201	
3908	28969	
3909	28777	
3910	28629	
3911	28487	
3912	28305	
3913	28067	
3914	27812	
3915	27630	
3916	27621	
3917	27845	
3918	28290	
3919	28876	
3920	29491	
3921	30042	
3922	30485	
3923	30825	
3924	31100	
3925	31343	
3926	31572	
3927	31788	
3928	31986	
3929	32164	
3930	32322	
3931	32461	
3932	32577	
3933	32665	
3934	32725	
3935	32765	
3936	32795	
3937	32825	
3938	32854	
3939	32881	
3940	32903	
3941	32923	
3942	32948	
3943	32988	
3944	33040	
3945	33095	
3946	33136	
3947	33150	
3948	33139	
3949	33114	
3950	33095	
3951	33093	
3952	33112	
3953	33141	
3954	33166	
3955	33179	
3956	33180	
3957	33177	
3958	33181	
3959	33195	
3960	33215	
3961	33230	
3962	33232	
3963	33221	
3964	33202	
3965	33184	
3966	33175	
3967	33176	
3968	33183	
3969	33190	
3970	33195	
3971	33200	
3972	33207	
3973	33220	
3974	33235	
3975	33250	
3976	33259	
3977	33260	
3978	33254	
3979	33247	
3980	33245	
3981	33252	
3982	33270	
3983	33296	
3984	33328	
3985	33362	
3986	33395	
3987	33425	
3988	33446	
3989	33454	
3990	33448	
3991	33432	
3992	33421	
3993	33426	
3994	33454	
3995	33499	
3996	33544	
3997	33569	
3998	33564	
3999	33536	
4000	33498	
4001	33470	
4002	33458	
4003	33458	
4004	33461	
4005	33457	
4006	33450	
4007	33448	
4008	33459	
4009	33486	
4010	33519	
4011	33548	
4012	33564	
4013	33569	
4014	33572	
4015	33581	
4016	33599	
4017	33617	
4018	33626	
4019	33623	
4020	33614	
4021	33609	
4022	33614	
4023	33625	
4024	33632	
4025	33624	
4026	33606	
4027	33589	
4028	33589	
4029	33611	
4030	33645	
4031	33671	
4032	33675	
4033	33660	
4034	33642	
4035	33639	
4036	33658	
4037	33690	
4038	33713	
4039	33713	
4040	33691	
4041	33665	
4042	33654	
4043	33664	
4044	33685	
4045	33699	
4046	33695	
4047	33676	
4048	33654	
4049	33645	
4050	33650	
4051	33659	
4052	33662	
4053	33653	
4054	33637	
4055	33628	
4056	33634	
4057	33655	
4058	33680	
4059	33694	
4060	33694	
4061	33686	
4062	33682	
4063	33691	
4064	33714	
4065	33737	
4066	33749	
4067	33742	
4068	33721	
4069	33700	
4070	33691	
4071	33700	
4072	33721	
4073	33743	
4074	33754	
4075	33749	
4076	33728	
4077	33699	
4078	33670	
4079	33647	
4080	33633	
4081	33628	
4082	33633	
4083	33647	
4084	33671	
4085	33702	
4086	33737	
4087	33774	
4088	33807	
4089	33835	
4090	33855	
4091	33868	
4092	33876	
4093	33880	
4094	33883	
4095	33885	
4096	33885	
4097	33883	
4098	33880	
4099	33877	
4100	33876	
4101	33877	
4102	33882	
4103	33894	
4104	33914	
4105	33944	
4106	33984	
4107	34030	
4108	34074	
4109	34109	
4110	34129	
4111	34133	
4112	34124	
4113	34113	
4114	34109	
4115	34120	
4116	34147	
4117	34187	
4118	34229	
4119	34264	
4120	34288	
4121	34304	
4122	34323	
4123	34352	
4124	34394	
4125	34442	
4126	34484	
4127	34512	
4128	34521	
4129	34519	
4130	34519	
4131	34533	
4132	34567	
4133	34616	
4134	34668	
4135	34712	
4136	34743	
4137	34763	
4138	34784	
4139	34812	
4140	34852	
4141	34900	
4142	34949	
4143	34995	
4144	35038	
4145	35077	
4146	35116	
4147	35156	
4148	35198	
4149	35243	
4150	35286	
4151	35325	
4152	35356	
4153	35375	
4154	35387	
4155	35393	
4156	35397	
4157	35402	
4158	35411	
4159	35428	
4160	35454	
4161	35483	
4162	35509	
4163	35525	
4164	35528	
4165	35524	
4166	35523	
4167	35537	
4168	35565	
4169	35601	
4170	35629	
4171	35634	
4172	35615	
4173	35583	
4174	35555	
4175	35544	
4176	35549	
4177	35553	
4178	35542	
4179	35507	
4180	35456	
4181	35403	
4182	35362	
4183	35339	
4184	35326	
4185	35312	
4186	35286	
4187	35246	
4188	35197	
4189	35152	
4190	35120	
4191	35100	
4192	35083	
4193	35053	
4194	34997	
4195	34916	
4196	34821	
4197	34733	
4198	34669	
4199	34632	
4200	34608	
4201	34575	
4202	34518	
4203	34437	
4204	34347	
4205	34270	
4206	34217	
4207	34182	
4208	34149	
4209	34102	
4210	34037	
4211	33963	
4212	33895	
4213	33844	
4214	33813	
4215	33788	
4216	33756	
4217	33709	
4218	33649	
4219	33588	
4220	33537	
4221	33502	
4222	33479	
4223	33460	
4224	33438	
4225	33410	
4226	33382	
4227	33359	
4228	33343	
4229	33325	
4230	33300	
4231	33264	
4232	33222	
4233	33184	
4234	33158	
4235	33144	
4236	33133	
4237	33116	
4238	33092	
4239	33063	
4240	33037	
4241	33014	
4242	32993	
4243	32968	
4244	32943	
4245	32923	
4246	32916	
4247	32922	
4248	32934	
4249	32941	
4250	32935	
4251	32917	
4252	32894	
4253	32877	
4254	32872	
4255	32876	
4256	32884	
4257	32890	
4258	32892	
4259	32890	
4260	32884	
4261	32875	
4262	32861	
4263	32848	
4264	32841	
4265	32846	
4266	32865	
4267	32894	
4268	32923	
4269	32943	
4270	32952	
4271	32952	
4272	32950	
4273	32950	
4274	32948	
4275	32943	
4276	32931	
4277	32917	
4278	32909	
4279	32911	
4280	32925	
4281	32943	
4282	32957	
4283	32963	
4284	32966	
4285	32969	
4286	32974	
4287	32979	
4288	32976	
4289	32962	
4290	32945	
4291	32937	
4292	32952	
4293	32991	
4294	33038	
4295	33072	
4296	33076	
4297	33049	
4298	33007	
4299	32973	
4300	32965	
4301	32986	
4302	33024	
4303	33062	
4304	33088	
4305	33096	
4306	33091	
4307	33078	
4308	33062	
4309	33049	
4310	33043	
4311	33048	
4312	33065	
4313	33088	
4314	33105	
4315	33104	
4316	33082	
4317	33045	
4318	33013	
4319	33001	
4320	33016	
4321	33051	
4322	33091	
4323	33121	
4324	33136	
4325	33139	
4326	33136	
4327	33130	
4328	33118	
4329	33098	
4330	33074	
4331	33055	
4332	33054	
4333	33074	
4334	33108	
4335	33139	
4336	33152	
4337	33144	
4338	33126	
4339	33116	
4340	33124	
4341	33148	
4342	33173	
4343	33183	
4344	33173	
4345	33153	
4346	33139	
4347	33141	
4348	33158	
4349	33175	
4350	33181	
4351	33171	
4352	33156	
4353	33152	
4354	33169	
4355	33201	
4356	33236	
4357	33255	
4358	33254	
4359	33239	
4360	33224	
4361	33220	
4362	33230	
4363	33246	
4364	33259	
4365	33264	
4366	33263	
4367	33262	
4368	33267	
4369	33276	
4370	33285	
4371	33289	
4372	33285	
4373	33275	
4374	33263	
4375	33251	
4376	33241	
4377	33234	
4378	33232	
4379	33237	
4380	33249	
4381	33267	
4382	33285	
4383	33299	
4384	33306	
4385	33309	
4386	33312	
4387	33317	
4388	33320	
4389	33319	
4390	33311	
4391	33298	
4392	33287	
4393	33283	
4394	33284	
4395	33285	
4396	33279	
4397	33263	
4398	33243	
4399	33230	
4400	33232	
4401	33252	
4402	33282	
4403	33309	
4404	33325	
4405	33329	
4406	33329	
4407	33331	
4408	33340	
4409	33351	
4410	33358	
4411	33356	
4412	33348	
4413	33340	
4414	33338	
4415	33343	
4416	33351	
4417	33357	
4418	33360	
4419	33363	
4420	33371	
4421	33384	
4422	33402	
4423	33417	
4424	33425	
4425	33427	
4426	33430	
4427	33442	
4428	33466	
4429	33494	
4430	33515	
4431	33516	
4432	33494	
4433	33457	
4434	33421	
4435	33398	
4436	33388	
4437	33384	
4438	33373	
4439	33349	
4440	33318	
4441	33290	
4442	33277	
4443	33284	
4444	33305	
4445	33330	
4446	33348	
4447	33358	
4448	33361	
4449	33364	
4450	33370	
4451	33381	
4452	33394	
4453	33407	
4454	33419	
4455	33429	
4456	33437	
4457	33444	
4458	33448	
4459	33452	
4460	33457	
4461	33469	
4462	33491	
4463	33521	
4464	33552	
4465	33578	
4466	33592	
4467	33594	
4468	33593	
4469	33598	
4470	33615	
4471	33645	
4472	33683	
4473	33719	
4474	33740	
4475	33742	
4476	33723	
4477	33690	
4478	33658	
4479	33642	
4480	33653	
4481	33695	
4482	33759	
4483	33828	
4484	33885	
4485	33918	
4486	33929	
4487	33930	
4488	33940	
4489	33971	
4490	34022	
4491	34081	
4492	34127	
4493	34145	
4494	34133	
4495	34103	
4496	34074	
4497	34059	
4498	34061	
4499	34071	
4500	34076	
4501	34068	
4502	34049	
4503	34029	
4504	34019	
4505	34023	
4506	34038	
4507	34053	
4508	34060	
4509	34057	
4510	34049	
4511	34043	
4512	34041	
4513	34044	
4514	34049	
4515	34057	
4516	34071	
4517	34095	
4518	34126	
4519	34154	
4520	34167	
4521	34157	
4522	34125	
4523	34087	
4524	34062	
4525	34059	
4526	34074	
4527	34092	
4528	34094	
4529	34073	
4530	34040	
4531	34013	
4532	34014	
4533	34047	
4534	34100	
4535	34150	
4536	34175	
4537	34169	
4538	34140	
4539	34108	
4540	34091	
4541	34095	
4542	34115	
4543	34138	
4544	34149	
4545	34143	
4546	34123	
4547	34097	
4548	34072	
4549	34052	
4550	34034	
4551	34015	
4552	33996	
4553	33980	
4554	33971	
4555	33972	
4556	33981	
4557	33994	
4558	34009	
4559	34022	
4560	34033	
4561	34038	
4562	34030	
4563	34009	
4564	33976	
4565	33946	
4566	33934	
4567	33948	
4568	33982	
4569	34019	
4570	34042	
4571	34042	
4572	34029	
4573	34018	
4574	34024	
4575	34046	
4576	34071	
4577	34085	
4578	34083	
4579	34074	
4580	34072	
4581	34087	
4582	34117	
4583	34148	
4584	34167	
4585	34169	
4586	34162	
4587	34162	
4588	34180	
4589	34213	
4590	34246	
4591	34262	
4592	34254	
4593	34234	
4594	34222	
4595	34234	
4596	34275	
4597	34327	
4598	34369	
4599	34390	
4600	34394	
4601	34400	
4602	34423	
4603	34469	
4604	34526	
4605	34573	
4606	34600	
4607	34610	
4608	34618	
4609	34641	
4610	34690	
4611	34758	
4612	34834	
4613	34908	
4614	34979	
4615	35055	
4616	35140	
4617	35228	
4618	35303	
4619	35345	
4620	35345	
4621	35309	
4622	35246	
4623	35152	
4624	34998	
4625	34736	
4626	34325	
4627	33761	
4628	33098	
4629	32434	
4630	31876	
4631	31494	
4632	31281	
4633	31166	
4634	31048	
4635	30851	
4636	30564	
4637	30237	
4638	29946	
4639	29742	
4640	29616	
4641	29510	
4642	29363	
4643	29163	
4644	28969	
4645	28889	
4646	29019	
4647	29385	
4648	29929	
4649	30531	
4650	31081	
4651	31522	
4652	31866	
4653	32165	
4654	32466	
4655	32780	
4656	33083	
4657	33344	
4658	33552	
4659	33724	
4660	33887	
4661	34058	
4662	34226	
4663	34362	
4664	34446	
4665	34486	
4666	34515	
4667	34575	
4668	34683	
4669	34823	
4670	34950	
4671	35030	
4672	35057	
4673	35056	
4674	35061	
4675	35088	
4676	35125	
4677	35146	
4678	35132	
4679	35094	
4680	35062	
4681	35066	
4682	35113	
4683	35184	
4684	35244	
4685	35273	
4686	35274	
4687	35267	
4688	35269	
4689	35285	
4690	35300	
4691	35301	
4692	35287	
4693	35273	
4694	35275	
4695	35297	
4696	35324	
4697	35337	
4698	35324	
4699	35296	
4700	35277	
4701	35286	
4702	35323	
4703	35372	
4704	35407	
4705	35419	
4706	35413	
4707	35409	
4708	35420	
4709	35445	
4710	35470	
4711	35481	
4712	35477	
4713	35466	
4714	35462	
4715	35472	
4716	35492	
4717	35509	
4718	35510	
4719	35494	
4720	35472	
4721	35460	
4722	35469	
4723	35498	
4724	35533	
4725	35557	
4726	35560	
4727	35547	
4728	35534	
4729	35534	
4730	35554	
4731	35586	
4732	35616	
4733	35631	
4734	35628	
4735	35614	
4736	35600	
4737	35596	
4738	35606	
4739	35623	
4740	35640	
4741	35649	
4742	35648	
4743	35637	
4744	35622	
4745	35608	
4746	35604	
4747	35613	
4748	35630	
4749	35645	
4750	35644	
4751	35626	
4752	35600	
4753	35585	
4754	35593	
4755	35622	
4756	35656	
4757	35673	
4758	35660	
4759	35624	
4760	35580	
4761	35548	
4762	35540	
4763	35557	
4764	35590	
4765	35629	
4766	35662	
4767	35686	
4768	35702	
4769	35715	
4770	35728	
4771	35736	
4772	35734	
4773	35719	
4774	35694	
4775	35670	
4776	35657	
4777	35660	
4778	35673	
4779	35684	
4780	35684	
4781	35673	
4782	35658	
4783	35650	
4784	35650	
4785	35653	
4786	35654	
4787	35650	
4788	35651	
4789	35668	
4790	35704	
4791	35745	
4792	35771	
4793	35766	
4794	35735	
4795	35700	
4796	35684	
4797	35699	
4798	35732	
4799	35759	
4800	35757	
4801	35728	
4802	35688	
4803	35660	
4804	35653	
4805	35659	
4806	35664	
4807	35664	
4808	35667	
4809	35690	
4810	35732	
4811	35777	
4812	35799	
4813	35786	
4814	35752	
4815	35727	
4816	35733	
4817	35766	
4818	35799	
4819	35805	
4820	35780	
4821	35749	
4822	35743	
4823	35776	
4824	35829	
4825	35870	
4826	35878	
4827	35862	
4828	35848	
4829	35858	
4830	35889	
4831	35921	
4832	35932	
4833	35922	
4834	35909	
4835	35918	
4836	35954	
4837	35996	
4838	36019	
4839	36014	
4840	35998	
4841	36004	
4842	36049	
4843	36126	
4844	36203	
4845	36251	
4846	36262	
4847	36255	
4848	36258	
4849	36288	
4850	36339	
4851	36391	
4852	36423	
4853	36432	
4854	36431	
4855	36439	
4856	36466	
4857	36510	
4858	36554	
4859	36591	
4860	36619	
4861	36649	
4862	36683	
4863	36718	
4864	36743	
4865	36757	
4866	36772	
4867	36802	
4868	36855	
4869	36920	
4870	36975	
4871	37005	
4872	37010	
4873	37011	
4874	37030	
4875	37074	
4876	37128	
4877	37171	
4878	37187	
4879	37183	
4880	37180	
4881	37196	
4882	37235	
4883	37283	
4884	37323	
4885	37343	
4886	37346	
4887	37346	
4888	37356	
4889	37381	
4890	37416	
4891	37452	
4892	37480	
4893	37499	
4894	37507	
4895	37505	
4896	37493	
4897	37475	
4898	37461	
4899	37458	
4900	37466	
4901	37475	
4902	37470	
4903	37440	
4904	37394	
4905	37354	
4906	37338	
4907	37349	
4908	37366	
4909	37360	
4910	37319	
4911	37261	
4912	37217	
4913	37209	
4914	37223	
4915	37223	
4916	37176	
4917	37080	
4918	36965	
4919	36870	
4920	36811	
4921	36774	
4922	36730	
4923	36663	
4924	36579	
4925	36504	
4926	36458	
4927	36437	
4928	36418	
4929	36377	
4930	36305	
4931	36216	
4932	36127	
4933	36048	
4934	35971	
4935	35884	
4936	35785	
4937	35687	
4938	35608	
4939	35553	
4940	35511	
4941	35464	
4942	35400	
4943	35326	
4944	35261	
4945	35219	
4946	35197	
4947	35172	
4948	35125	
4949	35050	
4950	34960	
4951	34879	
4952	34822	
4953	34787	
4954	34757	
4955	34718	
4956	34665	
4957	34605	
4958	34547	
4959	34495	
4960	34447	
4961	34402	
4962	34362	
4963	34336	
4964	34328	
4965	34332	
4966	34332	
4967	34315	
4968	34275	
4969	34222	
4970	34173	
4971	34138	
4972	34119	
4973	34106	
4974	34089	
4975	34067	
4976	34045	
4977	34035	
4978	34040	
4979	34056	
4980	34071	
4981	34070	
4982	34043	
4983	33994	
4984	33936	
4985	33887	
4986	33861	
4987	33861	
4988	33875	
4989	33891	
4990	33899	
4991	33900	
4992	33902	
4993	33913	
4994	33932	
4995	33947	
4996	33945	
4997	33922	
4998	33882	
4999	33842	
5000	33818	
5001	33818	
5002	33839	
5003	33865	
5004	33882	
5005	33880	
5006	33862	
5007	33839	
5008	33826	
5009	33832	
5010	33857	
5011	33893	
5012	33927	
5013	33950	
5014	33958	
5015	33955	
5016	33945	
5017	33934	
5018	33920	
5019	33907	
5020	33895	
5021	33889	
5022	33892	
5023	33903	
5024	33917	
5025	33929	
5026	33938	
5027	33946	
5028	33956	
5029	33969	
5030	33984	
5031	33995	
5032	33996	
5033	33989	
5034	33977	
5035	33965	
5036	33956	
5037	33953	
5038	33956	
5039	33966	
5040	33982	
5041	34002	
5042	34025	
5043	34044	
5044	34056	
5045	34056	
5046	34047	
5047	34034	
5048	34022	
5049	34017	
5050	34018	
5051	34019	
5052	34014	
5053	34000	
5054	33983	
5055	33974	
5056	33981	
5057	34005	
5058	34038	
5059	34067	
5060	34080	
5061	34076	
5062	34058	
5063	34037	
5064	34024	
5065	34028	
5066	34046	
5067	34073	
5068	34097	
5069	34107	
5070	34099	
5071	34081	
5072	34064	
5073	34057	
5074	34063	
5075	34073	
5076	34078	
5077	34071	
5078	34058	
5079	34048	
5080	34051	
5081	34067	
5082	34087	
5083	34101	
5084	34104	
5085	34099	
5086	34095	
5087	34099	
5088	34112	
5089	34128	
5090	34138	
5091	34140	
5092	34138	
5093	34142	
5094	34154	
5095	34169	
5096	34175	
5097	34162	
5098	34131	
5099	34093	
5100	34064	
5101	34054	
5102	34061	
5103	34073	
5104	34079	
5105	34072	
5106	34059	
5107	34047	
5108	34044	
5109	34046	
5110	34048	
5111	34041	
5112	34022	
5113	33997	
5114	33973	
5115	33956	
5116	33950	
5117	33951	
5118	33957	
5119	33962	
5120	33965	
5121	33964	
5122	33957	
5123	33943	
5124	33922	
5125	33901	
5126	33890	
5127	33895	
5128	33917	
5129	33943	
5130	33961	
5131	33960	
5132	33940	
5133	33916	
5134	33901	
5135	33901	
5136	33912	
5137	33920	
5138	33912	
5139	33885	
5140	33848	
5141	33815	
5142	33797	
5143	33795	
5144	33802	
5145	33810	
5146	33815	
5147	33819	
5148	33827	
5149	33841	
5150	33858	
5151	33870	
5152	33871	
5153	33862	
5154	33852	
5155	33848	
5156	33855	
5157	33866	
5158	33870	
5159	33863	
5160	33846	
5161	33831	
5162	33828	
5163	33841	
5164	33861	
5165	33874	
5166	33872	
5167	33857	
5168	33841	
5169	33838	
5170	33853	
5171	33884	
5172	33918	
5173	33946	
5174	33962	
5175	33966	
5176	33966	
5177	33966	
5178	33970	
5179	33981	
5180	33998	
5181	34017	
5182	34034	
5183	34044	
5184	34045	
5185	34037	
5186	34024	
5187	34013	
5188	34009	
5189	34015	
5190	34029	
5191	34049	
5192	34070	
5193	34091	
5194	34110	
5195	34129	
5196	34146	
5197	34162	
5198	34175	
5199	34189	
5200	34206	
5201	34226	
5202	34250	
5203	34276	
5204	34302	
5205	34326	
5206	34346	
5207	34358	
5208	34359	
5209	34346	
5210	34322	
5211	34295	
5212	34271	
5213	34254	
5214	34239	
5215	34223	
5216	34205	
5217	34186	
5218	34174	
5219	34171	
5220	34172	
5221	34173	
5222	34170	
5223	34166	
5224	34170	
5225	34185	
5226	34211	
5227	34237	
5228	34255	
5229	34260	
5230	34252	
5231	34236	
5232	34213	
5233	34183	
5234	34146	
5235	34105	
5236	34068	
5237	34040	
5238	34022	
5239	34006	
5240	33984	
5241	33955	
5242	33923	
5243	33900	
5244	33892	
5245	33901	
5246	33918	
5247	33933	
5248	33938	
5249	33930	
5250	33915	
5251	33904	
5252	33905	
5253	33919	
5254	33939	
5255	33949	
5256	33939	
5257	33911	
5258	33877	
5259	33853	
5260	33851	
5261	33864	
5262	33874	
5263	33864	
5264	33827	
5265	33772	
5266	33721	
5267	33692	
5268	33688	
5269	33700	
5270	33713	
5271	33717	
5272	33713	
5273	33706	
5274	33704	
5275	33708	
5276	33713	
5277	33713	
5278	33706	
5279	33696	
5280	33685	
5281	33676	
5282	33669	
5283	33669	
5284	33678	
5285	33699	
5286	33729	
5287	33757	
5288	33773	
5289	33767	
5290	33745	
5291	33718	
5292	33700	
5293	33701	
5294	33716	
5295	33734	
5296	33743	
5297	33737	
5298	33721	
5299	33703	
5300	33689	
5301	33682	
5302	33681	
5303	33686	
5304	33698	
5305	33718	
5306	33743	
5307	33766	
5308	33781	
5309	33783	
5310	33779	
5311	33777	
5312	33783	
5313	33797	
5314	33812	
5315	33822	
5316	33824	
5317	33821	
5318	33818	
5319	33821	
5320	33832	
5321	33856	
5322	33895	
5323	33956	
5324	34041	
5325	34143	
5326	34252	
5327	34353	
5328	34441	
5329	34516	
5330	34584	
5331	34648	
5332	34705	
5333	34741	
5334	34739	
5335	34678	
5336	34530	
5337	34260	
5338	33840	
5339	33263	
5340	32562	
5341	31817	
5342	31129	
5343	30583	
5344	30212	
5345	29977	
5346	29797	
5347	29589	
5348	29315	
5349	28996	
5350	28691	
5351	28446	
5352	28266	
5353	28108	
5354	27917	
5355	27672	
5356	27413	
5357	27231	
5358	27223	
5359	27446	
5360	27886	
5361	28466	
5362	29080	
5363	29642	
5364	30113	
5365	30501	
5366	30842	
5367	31166	
5368	31478	
5369	31764	
5370	32006	
5371	32203	
5372	32374	
5373	32541	
5374	32714	
5375	32878	
5376	33013	
5377	33106	
5378	33169	
5379	33225	
5380	33295	
5381	33382	
5382	33472	
5383	33550	
5384	33608	
5385	33651	
5386	33689	
5387	33730	
5388	33775	
5389	33820	
5390	33863	
5391	33899	
5392	33926	
5393	33940	
5394	33938	
5395	33919	
5396	33892	
5397	33867	
5398	33854	
5399	33860	
5400	33884	
5401	33918	
5402	33954	
5403	33985	
5404	34004	
5405	34008	
5406	34000	
5407	33985	
5408	33971	
5409	33970	
5410	33985	
5411	34015	
5412	34049	
5413	34074	
5414	34083	
5415	34075	
5416	34060	
5417	34050	
5418	34047	
5419	34050	
5420	34049	
5421	34038	
5422	34021	
5423	34009	
5424	34015	
5425	34043	
5426	34084	
5427	34122	
5428	34139	
5429	34126	
5430	34091	
5431	34051	
5432	34027	
5433	34029	
5434	34054	
5435	34087	
5436	34110	
5437	34114	
5438	34104	
5439	34096	
5440	34106	
5441	34136	
5442	34174	
5443	34200	
5444	34200	
5445	34175	
5446	34137	
5447	34104	
5448	34086	
5449	34085	
5450	34095	
5451	34110	
5452	34129	
5453	34150	
5454	34172	
5455	34191	
5456	34203	
5457	34204	
5458	34193	
5459	34170	
5460	34139	
5461	34105	
5462	34080	
5463	34072	
5464	34084	
5465	34113	
5466	34143	
5467	34162	
5468	34161	
5469	34145	
5470	34126	
5471	34118	
5472	34126	
5473	34147	
5474	34173	
5475	34192	
5476	34198	
5477	34192	
5478	34177	
5479	34158	
5480	34139	
5481	34121	
5482	34108	
5483	34103	
5484	34109	
5485	34128	
5486	34154	
5487	34177	
5488	34188	
5489	34184	
5490	34173	
5491	34170	
5492	34187	
5493	34224	
5494	34264	
5495	34287	
5496	34280	
5497	34249	
5498	34214	
5499	34196	
5500	34205	
5501	34236	
5502	34270	
5503	34295	
5504	34304	
5505	34305	
5506	34303	
5507	34303	
5508	34304	
5509	34300	
5510	34296	
5511	34297	
5512	34314	
5513	34344	
5514	34379	
5515	34403	
5516	34404	
5517	34382	
5518	34345	
5519	34308	
5520	34282	
5521	34276	
5522	34291	
5523	34329	
5524	34383	
5525	34440	
5526	34488	
5527	34514	
5528	34517	
5529	34507	
5530	34499	
5531	34503	
5532	34523	
5533	34550	
5534	34574	
5535	34590	
5536	34600	
5537	34611	
5538	34626	
5539	34643	
5540	34653	
5541	34649	
5542	34633	
5543	34615	
5544	34605	
5545	34610	
5546	34624	
5547	34633	
5548	34633	
5549	34631	
5550	34643	
5551	34682	
5552	34745	
5553	34810	
5554	34854	
5555	34866	
5556	34861	
5557	34864	
5558	34893	
5559	34945	
5560	34993	
5561	35009	
5562	34991	
5563	34961	
5564	34956	
5565	35000	
5566	35084	
5567	35174	
5568	35239	
5569	35266	
5570	35275	
5571	35290	
5572	35328	
5573	35380	
5574	35422	
5575	35440	
5576	35439	
5577	35441	
5578	35463	
5579	35506	
5580	35557	
5581	35599	
5582	35629	
5583	35660	
5584	35706	
5585	35774	
5586	35852	
5587	35923	
5588	35971	
5589	35996	
5590	36009	
5591	36023	
5592	36048	
5593	36082	
5594	36119	
5595	36154	
5596	36183	
5597	36208	
5598	36232	
5599	36260	
5600	36295	
5601	36335	
5602	36378	
5603	36415	
5604	36436	
5605	36438	
5606	36425	
5607	36409	
5608	36406	
5609	36425	
5610	36460	
5611	36497	
5612	36522	
5613	36527	
5614	36517	
5615	36502	
5616	36492	
5617	36490	
5618	36490	
5619	36488	
5620	36481	
5621	36475	
5622	36473	
5623	36475	
5624	36472	
5625	36454	
5626	36418	
5627	36372	
5628	36326	
5629	36290	
5630	36267	
5631	36249	
5632	36225	
5633	36185	
5634	36125	
5635	36049	
5636	35967	
5637	35890	
5638	35829	
5639	35789	
5640	35764	
5641	35740	
5642	35700	
5643	35630	
5644	35531	
5645	35419	
5646	35320	
5647	35252	
5648	35217	
5649	35202	
5650	35185	
5651	35152	
5652	35098	
5653	35030	
5654	34958	
5655	34887	
5656	34821	
5657	34757	
5658	34695	
5659	34632	
5660	34571	
5661	34512	
5662	34463	
5663	34426	
5664	34404	
5665	34388	
5666	34366	
5667	34325	
5668	34265	
5669	34198	
5670	34142	
5671	34107	
5672	34089	
5673	34074	
5674	34050	
5675	34015	
5676	33980	
5677	33955	
5678	33940	
5679	33924	
5680	33894	
5681	33851	
5682	33806	
5683	33776	
5684	33772	
5685	33787	
5686	33804	
5687	33809	
5688	33800	
5689	33785	
5690	33776	
5691	33774	
5692	33774	
5693	33767	
5694	33751	
5695	33736	
5696	33731	
5697	33737	
5698	33744	
5699	33741	
5700	33722	
5701	33696	
5702	33675	
5703	33672	
5704	33685	
5705	33701	
5706	33707	
5707	33697	
5708	33678	
5709	33664	
5710	33666	
5711	33686	
5712	33714	
5713	33733	
5714	33734	
5715	33717	
5716	33695	
5717	33684	
5718	33693	
5719	33716	
5720	33740	
5721	33752	
5722	33746	
5723	33729	
5724	33715	
5725	33715	
5726	33732	
5727	33757	
5728	33776	
5729	33782	
5730	33772	
5731	33757	
5732	33749	
5733	33755	
5734	33775	
5735	33799	
5736	33814	
5737	33816	
5738	33808	
5739	33798	
5740	33796	
5741	33804	
5742	33814	
5743	33818	
5744	33808	
5745	33788	
5746	33769	
5747	33767	
5748	33787	
5749	33823	
5750	33854	
5751	33863	
5752	33848	
5753	33821	
5754	33802	
5755	33805	
5756	33827	
5757	33851	
5758	33857	
5759	33840	
5760	33810	
5761	33789	
5762	33796	
5763	33833	
5764	33885	
5765	33928	
5766	33942	
5767	33928	
5768	33898	
5769	33872	
5770	33865	
5771	33876	
5772	33898	
5773	33917	
5774	33927	
5775	33928	
5776	33927	
5777	33929	
5778	33937	
5779	33947	
5780	33954	
5781	33957	
5782	33955	
5783	33951	
5784	33944	
5785	33936	
5786	33926	
5787	33915	
5788	33907	
5789	33905	
5790	33908	
5791	33916	
5792	33925	
5793	33933	
5794	33938	
5795	33940	
5796	33938	
5797	33932	
5798	33921	
5799	33903	
5800	33884	
5801	33869	
5802	33864	
5803	33871	
5804	33887	
5805	33908	
5806	33927	
5807	33937	
5808	33940	
5809	33938	
5810	33935	
5811	33933	
5812	33933	
5813	33935	
5814	33936	
5815	33936	
5816	33934	
5817	33928	
5818	33915	
5819	33893	
5820	33866	
5821	33839	
5822	33819	
5823	33808	
5824	33805	
5825	33806	
5826	33804	
5827	33798	
5828	33792	
5829	33789	
5830	33793	
5831	33804	
5832	33821	
5833	33837	
5834	33848	
5835	33854	
5836	33856	
5837	33856	
5838	33855	
5839	33854	
5840	33851	
5841	33844	
5842	33835	
5843	33826	
5844	33822	
5845	33824	
5846	33829	
5847	33832	
5848	33827	
5849	33814	
5850	33798	
5851	33787	
5852	33787	
5853	33798	
5854	33814	
5855	33827	
5856	33834	
5857	33836	
5858	33835	
5859	33834	
5860	33833	
5861	33831	
5862	33827	
5863	33824	
5864	33825	
5865	33834	
5866	33854	
5867	33879	
5868	33901	
5869	33910	
5870	33902	
5871	33884	
5872	33866	
5873	33863	
5874	33878	
5875	33904	
5876	33926	
5877	33930	
5878	33915	
5879	33892	
5880	33880	
5881	33893	
5882	33933	
5883	33985	
5884	34028	
5885	34049	
5886	34045	
5887	34026	
5888	34010	
5889	34010	
5890	34026	
5891	34050	
5892	34068	
5893	34073	
5894	34065	
5895	34052	
5896	34047	
5897	34057	
5898	34081	
5899	34111	
5900	34137	
5901	34154	
5902	34162	
5903	34168	
5904	34178	
5905	34196	
5906	34220	
5907	34244	
5908	34262	
5909	34273	
5910	34280	
5911	34287	
5912	34295	
5913	34301	
5914	34298	
5915	34279	
5916	34244	
5917	34201	
5918	34163	
5919	34141	
5920	34137	
5921	34144	
5922	34154	
5923	34156	
5924	34153	
5925	34151	
5926	34154	
5927	34166	
5928	34179	
5929	34186	
5930	34179	
5931	34165	
5932	34153	
5933	34153	
5934	34168	
5935	34187	
5936	34199	
5937	34196	
5938	34181	
5939	34161	
5940	34143	
5941	34124	
5942	34096	
5943	34053	
5944	33999	
5945	33950	
5946	33921	
5947	33922	
5948	33946	
5949	33979	
5950	34006	
5951	34019	
5952	34022	
5953	34023	
5954	34032	
5955	34046	
5956	34057	
5957	34056	
5958	34038	
5959	34009	
5960	33979	
5961	33956	
5962	33938	
5963	33920	
5964	33893	
5965	33858	
5966	33821	
5967	33795	
5968	33785	
5969	33790	
5970	33803	
5971	33812	
5972	33810	
5973	33795	
5974	33770	
5975	33742	
5976	33718	
5977	33701	
5978	33694	
5979	33697	
5980	33707	
5981	33719	
5982	33731	
5983	33738	
5984	33743	
5985	33747	
5986	33752	
5987	33757	
5988	33760	
5989	33759	
5990	33751	
5991	33737	
5992	33722	
5993	33711	
5994	33708	
5995	33716	
5996	33729	
5997	33742	
5998	33749	
5999	33750	
6000	33743	
6001	33732	
6002	33718	
6003	33704	
6004	33693	
6005	33686	
6006	33686	
6007	33691	
6008	33696	
6009	33696	
6010	33689	
6011	33678	
6012	33672	
6013	33681	
6014	33709	
6015	33749	
6016	33789	
6017	33816	
6018	33824	
6019	33820	
6020	33813	
6021	33815	
6022	33829	
6023	33853	
6024	33880	
6025	33908	
6026	33937	
6027	33973	
6028	34020	
6029	34081	
6030	34157	
6031	34248	
6032	34349	
6033	34451	
6034	34542	
6035	34609	
6036	34648	
6037	34659	
6038	34648	
6039	34606	
6040	34507	
6041	34306	
6042	33959	
6043	33443	
6044	32783	
6045	32050	
6046	31346	
6047	30763	
6048	30351	
6049	30092	
6050	29915	
6051	29731	
6052	29479	
6053	29152	
6054	28796	
6055	28475	
6056	28226	
6057	28039	
6058	27869	
6059	27675	
6060	27461	
6061	27287	
6062	27246	
6063	27414	
6064	27806	
6065	28369	
6066	29002	
6067	29605	
6068	30117	
6069	30529	
6070	30869	
6071	31172	
6072	31461	
6073	31741	
6074	32003	
6075	32238	
6076	32440	
6077	32608	
6078	32745	
6079	32854	
6080	32941	
6081	33014	
6082	33085	
6083	33160	
6084	33241	
6085	33325	
6086	33408	
6087	33490	
6088	33569	
6089	33642	
6090	33704	
6091	33750	
6092	33780	
6093	33799	
6094	33816	
6095	33834	
6096	33850	
6097	33858	
6098	33853	
6099	33840	
6100	33826	
6101	33820	
6102	33829	
6103	33849	
6104	33874	
6105	33895	
6106	33909	
6107	33912	
6108	33906	
6109	33894	
6110	33876	
6111	33855	
6112	33833	
6113	33810	
6114	33792	
6115	33781	
6116	33781	
6117	33794	
6118	33819	
6119	33850	
6120	33880	
6121	33902	
6122	33909	
6123	33903	
6124	33890	
6125	33880	
6126	33882	
6127	33897	
6128	33922	
6129	33947	
6130	33962	
6131	33963	
6132	33952	
6133	33936	
6134	33923	
6135	33919	
6136	33924	
6137	33934	
6138	33942	
6139	33945	
6140	33943	
6141	33940	
6142	33940	
6143	33948	
6144	33965	
6145	33988	
6146	34011	
6147	34028	
6148	34035	
6149	34034	
6150	34032	
6151	34034	
6152	34043	
6153	34058	
6154	34073	
6155	34084	
6156	34089	
6157	34093	
6158	34095	
6159	34095	
6160	34086	
6161	34064	
6162	34035	
6163	34011	
6164	34004	
6165	34020	
6166	34050	
6167	34074	
6168	34079	
6169	34064	
6170	34045	
6171	34039	
6172	34058	
6173	34098	
6174	34140	
6175	34168	
6176	34173	
6177	34160	
6178	34145	
6179	34138	
6180	34145	
6181	34161	
6182	34175	
6183	34179	
6184	34171	
6185	34156	
6186	34144	
6187	34146	
6188	34168	
6189	34208	
6190	34258	
6191	34306	
6192	34345	
6193	34371	
6194	34390	
6195	34409	
6196	34433	
6197	34460	
6198	34479	
6199	34481	
6200	34464	
6201	34436	
6202	34415	
6203	34416	
6204	34446	
6205	34494	
6206	34542	
6207	34573	
6208	34579	
6209	34566	
6210	34548	
6211	34541	
6212	34551	
6213	34575	
6214	34601	
6215	34616	
6216	34612	
6217	34592	
6218	34567	
6219	34552	
6220	34555	
6221	34572	
6222	34590	
6223	34593	
6224	34579	
6225	34560	
6226	34559	
6227	34589	
6228	34644	
6229	34699	
6230	34726	
6231	34718	
6232	34688	
6233	34666	
6234	34671	
6235	34702	
6236	34740	
6237	34762	
6238	34765	
6239	34761	
6240	34769	
6241	34800	
6242	34846	
6243	34885	
6244	34900	
6245	34888	
6246	34866	
6247	34856	
6248	34871	
6249	34905	
6250	34940	
6251	34963	
6252	34970	
6253	34975	
6254	34992	
6255	35027	
6256	35069	
6257	35104	
6258	35119	
6259	35115	
6260	35110	
6261	35118	
6262	35145	
6263	35183	
6264	35217	
6265	35237	
6266	35249	
6267	35268	
6268	35305	
6269	35360	
6270	35421	
6271	35471	
6272	35500	
6273	35510	
6274	35511	
6275	35515	
6276	35530	
6277	35560	
6278	35601	
6279	35647	
6280	35691	
6281	35732	
6282	35769	
6283	35808	
6284	35852	
6285	35902	
6286	35954	
6287	36005	
6288	36050	
6289	36090	
6290	36127	
6291	36165	
6292	36208	
6293	36254	
6294	36303	
6295	36350	
6296	36391	
6297	36425	
6298	36448	
6299	36462	
6300	36471	
6301	36480	
6302	36491	
6303	36505	
6304	36522	
6305	36542	
6306	36572	
6307	36610	
6308	36649	
6309	36676	
6310	36680	
6311	36664	
6312	36643	
6313	36639	
6314	36663	
6315	36708	
6316	36752	
6317	36773	
6318	36765	
6319	36737	
6320	36711	
6321	36700	
6322	36701	
6323	36698	
6324	36677	
6325	36639	
6326	36598	
6327	36571	
6328	36559	
6329	36549	
6330	36523	
6331	36477	
6332	36422	
6333	36375	
6334	36347	
6335	36327	
6336	36298	
6337	36245	
6338	36173	
6339	36098	
6340	36039	
6341	36001	
6342	35972	
6343	35937	
6344	35886	
6345	35822	
6346	35756	
6347	35697	
6348	35646	
6349	35598	
6350	35548	
6351	35494	
6352	35437	
6353	35377	
6354	35310	
6355	35232	
6356	35144	
6357	35054	
6358	34971	
6359	34903	
6360	34849	
6361	34800	
6362	34749	
6363	34693	
6364	34635	
6365	34585	
6366	34550	
6367	34528	
6368	34512	
6369	34489	
6370	34450	
6371	34396	
6372	34335	
6373	34277	
6374	34228	
6375	34190	
6376	34157	
6377	34125	
6378	34089	
6379	34053	
6380	34018	
6381	33986	
6382	33958	
6383	33932	
6384	33907	
6385	33883	
6386	33861	
6387	33838	
6388	33816	
6389	33792	
6390	33769	
6391	33750	
6392	33735	
6393	33724	
6394	33714	
6395	33704	
6396	33694	
6397	33688	
6398	33688	
6399	33692	
6400	33693	
6401	33683	
6402	33661	
6403	33634	
6404	33616	
6405	33615	
6406	33633	
6407	33661	
6408	33683	
6409	33690	
6410	33682	
6411	33666	
6412	33651	
6413	33643	
6414	33645	
6415	33654	
6416	33664	
6417	33669	
6418	33664	
6419	33649	
6420	33633	
6421	33624	
6422	33633	
6423	33658	
6424	33692	
6425	33719	
6426	33727	
6427	33715	
6428	33694	
6429	33681	
6430	33685	
6431	33709	
6432	33739	
6433	33759	
6434	33757	
6435	33732	
6436	33694	
6437	33662	
6438	33649	
6439	33658	
6440	33685	
6441	33717	
6442	33742	
6443	33752	
6444	33749	
6445	33740	
6446	33734	
6447	33741	
6448	33761	
6449	33788	
6450	33812	
6451	33825	
6452	33824	
6453	33815	
6454	33807	
6455	33808	
6456	33816	
6457	33825	
6458	33822	
6459	33805	
6460	33777	
6461	33753	
6462	33745	
6463	33759	
6464	33789	
6465	33820	
6466	33837	
6467	33834	
6468	33817	
6469	33803	
6470	33806	
6471	33833	
6472	33876	
6473	33917	
6474	33940	
6475	33938	
6476	33920	
6477	33899	
6478	33885	
6479	33881	
6480	33881	
6481	33879	
6482	33874	
6483	33871	
6484	33875	
6485	33887	
6486	33899	
6487	33903	
6488	33896	
6489	33883	
6490	33875	
6491	33882	
6492	33904	
6493	33935	
6494	33958	
6495	33961	
6496	33945	
6497	33918	
6498	33897	
6499	33894	
6500	33913	
6501	33942	
6502	33968	
6503	33979	
6504	33975	
6505	33962	
6506	33953	
6507	33953	
6508	33961	
6509	33968	
6510	33971	
6511	33970	
6512	33973	
6513	33984	
6514	34006	
6515	34030	
6516	34044	
6517	34041	
6518	34022	
6519	33994	
6520	33970	
6521	33959	
6522	33962	
6523	33971	
6524	33978	
6525	33974	
6526	33962	
6527	33949	
6528	33944	
6529	33951	
6530	33965	
6531	33976	
6532	33976	
6533	33960	
6534	33935	
6535	33909	
6536	33889	
6537	33880	
6538	33881	
6539	33891	
6540	33905	
6541	33919	
6542	33929	
6543	33929	
6544	33921	
6545	33905	
6546	33888	
6547	33875	
6548	33871	
6549	33877	
6550	33889	
6551	33903	
6552	33911	
6553	33907	
6554	33892	
6555	33870	
6556	33852	
6557	33849	
6558	33864	
6559	33888	
6560	33910	
6561	33916	
6562	33905	
6563	33884	
6564	33867	
6565	33863	
6566	33875	
6567	33894	
6568	33908	
6569	33908	
6570	33890	
6571	33864	
6572	33842	
6573	33835	
6574	33847	
6575	33866	
6576	33879	
6577	33876	
6578	33859	
6579	33841	
6580	33837	
6581	33855	
6582	33887	
6583	33917	
6584	33931	
6585	33925	
6586	33911	
6587	33903	
6588	33914	
6589	33941	
6590	33972	
6591	33991	
6592	33995	
6593	33989	
6594	33987	
6595	33996	
6596	34015	
6597	34034	
6598	34043	
6599	34037	
6600	34020	
6601	34003	
6602	33995	
6603	33999	
6604	34013	
6605	34033	
6606	34055	
6607	34077	
6608	34101	
6609	34126	
6610	34153	
6611	34185	
6612	34219	
6613	34253	
6614	34279	
6615	34290	
6616	34283	
6617	34264	
6618	34243	
6619	34230	
6620	34227	
6621	34229	
6622	34225	
6623	34210	
6624	34187	
6625	34167	
6626	34159	
6627	34165	
6628	34180	
6629	34192	
6630	34194	
6631	34186	
6632	34176	
6633	34169	
6634	34169	
6635	34170	
6636	34166	
6637	34152	
6638	34130	
6639	34113	
6640	34109	
6641	34122	
6642	34140	
6643	34150	
6644	34137	
6645	34102	
6646	34058	
6647	34023	
6648	34009	
6649	34013	
6650	34018	
6651	34005	
6652	33966	
6653	33906	
6654	33843	
6655	33799	
6656	33785	
6657	33801	
6658	33837	
6659	33878	
6660	33912	
6661	33935	
6662	33945	
6663	33945	
6664	33933	
6665	33908	
6666	33874	
6667	33837	
6668	33808	
6669	33796	
6670	33799	
6671	33812	
6672	33820	
6673	33813	
6674	33791	
6675	33760	
6676	33731	
6677	33711	
6678	33699	
6679	33690	
6680	33678	
6681	33659	
6682	33633	
6683	33609	
6684	33593	
6685	33591	
6686	33602	
6687	33619	
6688	33632	
6689	33634	
6690	33625	
6691	33615	
6692	33611	
6693	33620	
6694	33635	
6695	33645	
6696	33646	
6697	33638	
6698	33631	
6699	33634	
6700	33645	
6701	33657	
6702	33659	
6703	33647	
6704	33630	
6705	33619	
6706	33622	
6707	33636	
6708	33650	
6709	33657	
6710	33657	
6711	33658	
6712	33669	
6713	33687	
6714	33702	
6715	33700	
6716	33677	
6717	33641	
6718	33611	
6719	33603	
6720	33621	
6721	33657	
6722	33697	
6723	33731	
6724	33759	
6725	33787	
6726	33817	
6727	33844	
6728	33860	
6729	33854	
6730	33829	
6731	33802	
6732	33795	
6733	33819	
6734	33873	
6735	33940	
6736	34002	
6737	34053	
6738	34100	
6739	34155	
6740	34222	
6741	34287	
6742	34327	
6743	34329	
6744	34293	
6745	34236	
6746	34167	
6747	34063	
6748	33872	
6749	33535	
6750	33020	
6751	32358	
6752	31638	
6753	30977	
6754	30467	
6755	30136	
6756	29943	
6757	29802	
6758	29630	
6759	29384	
6760	29081	
6761	28773	
6762	28516	
6763	28339	
6764	28224	
6765	28126	
6766	28004	
6767	27856	
6768	27732	
6769	27716	
6770	27880	
6771	28251	
6772	28786	
6773	29395	
6774	29980	
6775	30475	
6776	30866	
6777	31178	
6778	31453	
6779	31718	
6780	31977	
6781	32218	
6782	32429	
6783	32610	
6784	32774	
6785	32931	
6786	33080	
6787	33209	
6788	33305	
6789	33370	
6790	33424	
6791	33488	
6792	33574	
6793	33672	
6794	33759	
6795	33818	
6796	33850	
6797	33866	
6798	33881	
6799	33897	
6800	33907	
6801	33900	
6802	33879	
6803	33860	
6804	33862	
6805	33890	
6806	33937	
6807	33983	
6808	34013	
6809	34023	
6810	34024	
6811	34026	
6812	34032	
6813	34037	
6814	34030	
6815	34009	
6816	33981	
6817	33960	
6818	33955	
6819	33965	
6820	33976	
6821	33977	
6822	33963	
6823	33943	
6824	33933	
6825	33945	
6826	33977	
6827	34016	
6828	34047	
6829	34059	
6830	34056	
6831	34048	
6832	34047	
6833	34055	
6834	34064	
6835	34065	
6836	34050	
6837	34023	
6838	33992	
6839	33970	
6840	33964	
6841	33976	
6842	34000	
6843	34031	
6844	34063	
6845	34088	
6846	34103	
6847	34107	
6848	34100	
6849	34092	
6850	34088	
6851	34093	
6852	34101	
6853	34102	
6854	34087	
6855	34057	
6856	34023	
6857	33999	
6858	33996	
6859	34014	
6860	34043	
6861	34070	
6862	34086	
6863	34087	
6864	34079	
6865	34070	
6866	34066	
6867	34073	
6868	34089	
6869	34108	
6870	34123	
6871	34125	
6872	34111	
6873	34085	
6874	34057	
6875	34040	
6876	34040	
6877	34058	
6878	34087	
6879	34113	
6880	34125	
6881	34119	
6882	34097	
6883	34073	
6884	34057	
6885	34055	
6886	34062	
6887	34066	
6888	34057	
6889	34036	
6890	34016	
6891	34012	
6892	34033	
6893	34072	
6894	34110	
6895	34132	
6896	34132	
6897	34119	
6898	34108	
6899	34111	
6900	34129	
6901	34152	
6902	34169	
6903	34171	
6904	34160	
6905	34146	
6906	34139	
6907	34146	
6908	34163	
6909	34183	
6910	34194	
6911	34192	
6912	34182	
6913	34177	
6914	34184	
6915	34206	
6916	34229	
6917	34240	
6918	34233	
6919	34215	
6920	34203	
6921	34210	
6922	34237	
6923	34272	
6924	34296	
6925	34299	
6926	34285	
6927	34269	
6928	34267	
6929	34282	
6930	34307	
6931	34325	
6932	34325	
6933	34308	
6934	34286	
6935	34274	
6936	34284	
6937	34312	
6938	34348	
6939	34377	
6940	34392	
6941	34396	
6942	34398	
6943	34411	
6944	34435	
6945	34465	
6946	34488	
6947	34497	
6948	34495	
6949	34494	
6950	34505	
6951	34530	
6952	34562	
6953	34587	
6954	34599	
6955	34599	
6956	34599	
6957	34607	
6958	34627	
6959	34652	
6960	34674	
6961	34690	
6962	34706	
6963	34729	
6964	34764	
6965	34808	
6966	34849	
6967	34879	
6968	34897	
6969	34907	
6970	34921	
6971	34946	
6972	34980	
6973	35016	
6974	35048	
6975	35075	
6976	35103	
6977	35142	
6978	35195	
6979	35254	
6980	35306	
6981	35340	
6982	35357	
6983	35370	
6984	35393	
6985	35435	
6986	35488	
6987	35537	
6988	35570	
6989	35587	
6990	35601	
6991	35630	
6992	35681	
6993	35744	
6994	35800	
6995	35832	
6996	35839	
6997	35839	
6998	35856	
6999	35902	
7000	35973	
7001	36046	
7002	36098	
7003	36121	
7004	36128	
7005	36137	
7006	36164	
7007	36206	
7008	36250	
7009	36281	
7010	36297	
7011	36310	
7012	36335	
7013	36376	
7014	36421	
7015	36449	
7016	36448	
7017	36422	
7018	36394	
7019	36387	
7020	36409	
7021	36451	
7022	36494	
7023	36521	
7024	36528	
7025	36523	
7026	36515	
7027	36508	
7028	36500	
7029	36485	
7030	36461	
7031	36436	
7032	36416	
7033	36404	
7034	36391	
7035	36365	
7036	36324	
7037	36275	
7038	36232	
7039	36205	
7040	36193	
7041	36183	
7042	36160	
7043	36117	
7044	36057	
7045	35990	
7046	35927	
7047	35879	
7048	35849	
7049	35830	
7050	35803	
7051	35752	
7052	35671	
7053	35571	
7054	35473	
7055	35394	
7056	35336	
7057	35288	
7058	35239	
7059	35186	
7060	35134	
7061	35088	
7062	35045	
7063	34993	
7064	34923	
7065	34838	
7066	34753	
7067	34685	
7068	34641	
7069	34611	
7070	34580	
7071	34538	
7072	34485	
7073	34431	
7074	34382	
7075	34338	
7076	34291	
7077	34233	
7078	34165	
7079	34098	
7080	34045	
7081	34016	
7082	34012	
7083	34020	
7084	34028	
7085	34025	
7086	34009	
7087	33983	
7088	33953	
7089	33921	
7090	33886	
7091	33849	
7092	33816	
7093	33796	
7094	33792	
7095	33800	
7096	33810	
7097	33810	
7098	33795	
7099	33769	
7100	33742	
7101	33720	
7102	33703	
7103	33690	
7104	33681	
7105	33678	
7106	33684	
7107	33698	
7108	33711	
7109	33714	
7110	33702	
7111	33683	
7112	33668	
7113	33668	
7114	33680	
7115	33692	
7116	33691	
7117	33670	
7118	33639	
7119	33617	
7120	33614	
7121	33631	
7122	33654	
7123	33666	
7124	33659	
7125	33643	
7126	33632	
7127	33639	
7128	33663	
7129	33693	
7130	33714	
7131	33722	
7132	33722	
7133	33722	
7134	33726	
7135	33732	
7136	33734	
7137	33731	
7138	33731	
7139	33745	
7140	33772	
7141	33802	
7142	33816	
7143	33799	
7144	33757	
7145	33713	
7146	33693	
7147	33712	
7148	33762	
7149	33818	
7150	33853	
7151	33853	
7152	33823	
7153	33785	
7154	33760	
7155	33760	
7156	33779	
7157	33803	
7158	33817	
7159	33816	
7160	33803	
7161	33788	
7162	33781	
7163	33788	
7164	33806	
7165	33826	
7166	33839	
7167	33839	
7168	33829	
7169	33819	
7170	33819	
7171	33835	
7172	33864	
7173	33893	
7174	33911	
7175	33909	
7176	33889	
7177	33860	
7178	33835	
7179	33825	
7180	33833	
7181	33852	
7182	33872	
7183	33882	
7184	33877	
7185	33863	
7186	33853	
7187	33855	
7188	33870	
7189	33890	
7190	33903	
7191	33902	
7192	33890	
7193	33880	
7194	33881	
7195	33898	
7196	33925	
7197	33950	
7198	33965	
7199	33967	
7200	33960	
7201	33950	
7202	33938	
7203	33925	
7204	33910	
7205	33895	
7206	33885	
7207	33886	
7208	33899	
7209	33920	
7210	33943	
7211	33960	
7212	33965	
7213	33957	
7214	33941	
7215	33923	
7216	33910	
7217	33907	
7218	33913	
7219	33921	
7220	33922	
7221	33911	
7222	33892	
7223	33871	
7224	33858	
7225	33855	
7226	33857	
7227	33859	
7228	33857	
7229	33855	
7230	33863	
7231	33886	
7232	33918	
7233	33944	
7234	33946	
7235	33916	
7236	33866	
7237	33819	
7238	33794	
7239	33798	
7240	33814	
7241	33822	
7242	33806	
7243	33771	
7244	33738	
7245	33733	
7246	33765	
7247	33823	
7248	33880	
7249	33905	
7250	33884	
7251	33828	
7252	33764	
7253	33724	
7254	33722	
7255	33753	
7256	33793	
7257	33818	
7258	33811	
7259	33778	
7260	33735	
7261	33705	
7262	33702	
7263	33729	
7264	33769	
7265	33804	
7266	33813	
7267	33795	
7268	33760	
7269	33733	
7270	33731	
7271	33756	
7272	33792	
7273	33815	
7274	33807	
7275	33774	
7276	33736	
7277	33714	
7278	33714	
7279	33723	
7280	33718	
7281	33688	
7282	33641	
7283	33603	
7284	33600	
7285	33637	
7286	33694	
7287	33741	
7288	33750	
7289	33722	
7290	33679	
7291	33652	
7292	33661	
7293	33704	
7294	33761	
7295	33806	
7296	33821	
7297	33811	
7298	33791	
7299	33782	
7300	33792	
7301	33818	
7302	33847	
7303	33868	
7304	33876	
7305	33877	
7306	33879	
7307	33885	
7308	33894	
7309	33897	
7310	33887	
7311	33865	
7312	33840	
7313	33826	
7314	33832	
7315	33858	
7316	33894	
7317	33925	
7318	33942	
7319	33942	
7320	33937	
7321	33940	
7322	33963	
7323	34008	
7324	34065	
7325	34115	
7326	34143	
7327	34142	
7328	34122	
7329	34096	
7330	34080	
7331	34080	
7332	34091	
7333	34103	
7334	34103	
7335	34090	
7336	34070	
7337	34052	
7338	34046	
7339	34048	
7340	34051	
7341	34047	
7342	34035	
7343	34022	
7344	34017	
7345	34021	
7346	34028	
7347	34028	
7348	34014	
7349	33993	
7350	33980	
7351	33987	
7352	34016	
7353	34054	
7354	34080	
7355	34079	
7356	34049	
7357	34003	
7358	33960	
7359	33933	
7360	33923	
7361	33923	
7362	33917	
7363	33900	
7364	33874	
7365	33852	
7366	33845	
7367	33854	
7368	33870	
7369	33880	
7370	33874	
7371	33853	
7372	33829	
7373	33814	
7374	33814	
7375	33822	
7376	33828	
7377	33824	
7378	33810	
7379	33793	
7380	33777	
7381	33762	
7382	33746	
7383	33724	
7384	33699	
7385	33678	
7386	33667	
7387	33667	
7388	33674	
7389	33677	
7390	33666	
7391	33642	
7392	33618	
7393	33610	
7394	33629	
7395	33669	
7396	33713	
7397	33738	
7398	33729	
7399	33693	
7400	33650	
7401	33624	
7402	33629	
7403	33658	
7404	33694	
7405	33717	
7406	33716	
7407	33697	
7408	33672	
7409	33655	
7410	33654	
7411	33666	
7412	33685	
7413	33703	
7414	33713	
7415	33715	
7416	33709	
7417	33697	
7418	33681	
7419	33666	
7420	33654	
7421	33649	
7422	33651	
7423	33660	
7424	33675	
7425	33694	
7426	33713	
7427	33725	
7428	33724	
7429	33707	
7430	33682	
7431	33664	
7432	33668	
7433	33701	
7434	33752	
7435	33796	
7436	33812	
7437	33790	
7438	33744	
7439	33699	
7440	33681	
7441	33698	
7442	33739	
7443	33781	
7444	33809	
7445	33824	
7446	33844	
7447	33890	
7448	33971	
7449	34077	
7450	34187	
7451	34272	
7452	34319	
7453	34329	
7454	34315	
7455	34294	
7456	34267	
7457	34214	
7458	34091	
7459	33850	
7460	33456	
7461	32914	
7462	32275	
7463	31624	
7464	31053	
7465	30625	
7466	30350	
7467	30184	
7468	30056	
7469	29902	
7470	29696	
7471	29459	
7472	29237	
7473	29068	
7474	28948	
7475	28834	
7476	28672	
7477	28443	
7478	28189	
7479	28008	
7480	28009	
7481	28257	
7482	28736	
7483	29354	
7484	29989	
7485	30539	
7486	30960	
7487	31272	
7488	31525	
7489	31767	
7490	32019	
7491	32272	
7492	32502	
7493	32695	
7494	32851	
7495	32984	
7496	33104	
7497	33212	
7498	33300	
7499	33357	
7500	33387	
7501	33404	
7502	33431	
7503	33475	
7504	33533	
7505	33589	
7506	33633	
7507	33669	
7508	33706	
7509	33749	
7510	33788	
7511	33805	
7512	33793	
7513	33764	
7514	33746	
7515	33762	
7516	33808	
7517	33860	
7518	33884	
7519	33869	
7520	33832	
7521	33808	
7522	33820	
7523	33862	
7524	33904	
7525	33915	
7526	33890	
7527	33850	
7528	33830	
7529	33848	
7530	33893	
7531	33933	
7532	33942	
7533	33918	
7534	33887	
7535	33881	
7536	33912	
7537	33960	
7538	33989	
7539	33977	
7540	33929	
7541	33877	
7542	33854	
7543	33872	
7544	33913	
7545	33945	
7546	33944	
7547	33915	
7548	33884	
7549	33876	
7550	33899	
7551	33939	
7552	33971	
7553	33980	
7554	33968	
7555	33956	
7556	33959	
7557	33977	
7558	33996	
7559	34000	
7560	33982	
7561	33951	
7562	33925	
7563	33916	
7564	33928	
7565	33951	
7566	33975	
7567	33992	
7568	34001	
7569	34005	
7570	34008	
7571	34012	
7572	34017	
7573	34020	
7574	34020	
7575	34015	
7576	34004	
7577	33989	
7578	33973	
7579	33961	
7580	33955	
7581	33956	
7582	33957	
7583	33954	
7584	33945	
7585	33933	
7586	33928	
7587	33935	
7588	33954	
7589	33975	
7590	33986	
7591	33984	
7592	33973	
7593	33968	
7594	33978	
7595	34000	
7596	34022	
7597	34032	
7598	34027	
7599	34017	
7600	34014	
7601	34027	
7602	34050	
7603	34071	
7604	34083	
7605	34086	
7606	34089	
7607	34102	
7608	34124	
7609	34144	
7610	34149	
7611	34132	
7612	34103	
7613	34076	
7614	34063	
7615	34066	
7616	34078	
7617	34091	
7618	34102	
7619	34116	
7620	34135	
7621	34159	
7622	34180	
7623	34190	
7624	34188	
7625	34180	
7626	34175	
7627	34182	
7628	34198	
7629	34216	
7630	34229	
7631	34232	
7632	34229	
7633	34225	
7634	34227	
7635	34237	
7636	34254	
7637	34272	
7638	34288	
7639	34301	
7640	34310	
7641	34316	
7642	34321	
7643	34326	
7644	34334	
7645	34346	
7646	34364	
7647	34383	
7648	34400	
7649	34410	
7650	34414	
7651	34416	
7652	34420	
7653	34432	
7654	34452	
7655	34478	
7656	34505	
7657	34527	
7658	34537	
7659	34531	
7660	34511	
7661	34485	
7662	34468	
7663	34467	
7664	34484	
7665	34514	
7666	34544	
7667	34570	
7668	34593	
7669	34619	
7670	34649	
7671	34681	
7672	34708	
7673	34727	
7674	34743	
7675	34762	
7676	34788	
7677	34813	
7678	34833	
7679	34846	
7680	34861	
7681	34891	
7682	34941	
7683	35000	
7684	35049	
7685	35074	
7686	35075	
7687	35067	
7688	35070	
7689	35091	
7690	35126	
7691	35163	
7692	35192	
7693	35214	
7694	35234	
7695	35258	
7696	35286	
7697	35317	
7698	35351	
7699	35388	
7700	35431	
7701	35480	
7702	35532	
7703	35584	
7704	35632	
7705	35675	
7706	35709	
7707	35728	
7708	35732	
7709	35729	
7710	35735	
7711	35768	
7712	35833	
7713	35917	
7714	35994	
7715	36041	
7716	36055	
7717	36054	
7718	36065	
7719	36101	
7720	36153	
7721	36193	
7722	36197	
7723	36165	
7724	36125	
7725	36111	
7726	36140	
7727	36200	
7728	36260	
7729	36293	
7730	36296	
7731	36290	
7732	36299	
7733	36334	
7734	36379	
7735	36408	
7736	36402	
7737	36364	
7738	36314	
7739	36274	
7740	36253	
7741	36249	
7742	36256	
7743	36266	
7744	36276	
7745	36283	
7746	36280	
7747	36263	
7748	36234	
7749	36197	
7750	36159	
7751	36121	
7752	36080	
7753	36037	
7754	35996	
7755	35960	
7756	35926	
7757	35880	
7758	35812	
7759	35723	
7760	35631	
7761	35557	
7762	35511	
7763	35486	
7764	35459	
7765	35418	
7766	35363	
7767	35309	
7768	35269	
7769	35242	
7770	35210	
7771	35152	
7772	35062	
7773	34952	
7774	34848	
7775	34773	
7776	34735	
7777	34724	
7778	34722	
7779	34710	
7780	34677	
7781	34623	
7782	34552	
7783	34474	
7784	34400	
7785	34341	
7786	34302	
7787	34281	
7788	34268	
7789	34250	
7790	34216	
7791	34167	
7792	34115	
7793	34072	
7794	34046	
7795	34031	
7796	34015	
7797	33988	
7798	33948	
7799	33902	
7800	33861	
7801	33830	
7802	33805	
7803	33780	
7804	33750	
7805	33720	
7806	33701	
7807	33703	
7808	33723	
7809	33748	
7810	33759	
7811	33744	
7812	33706	
7813	33664	
7814	33638	
7815	33638	
7816	33658	
7817	33679	
7818	33684	
7819	33668	
7820	33639	
7821	33611	
7822	33595	
7823	33589	
7824	33587	
7825	33585	
7826	33585	
7827	33597	
7828	33626	
7829	33663	
7830	33691	
7831	33694	
7832	33670	
7833	33638	
7834	33621	
7835	33634	
7836	33669	
7837	33701	
7838	33704	
7839	33672	
7840	33623	
7841	33590	
7842	33598	
7843	33645	
7844	33705	
7845	33744	
7846	33742	
7847	33711	
7848	33679	
7849	33675	
7850	33704	
7851	33750	
7852	33783	
7853	33787	
7854	33765	
7855	33737	
7856	33722	
7857	33724	
7858	33732	
7859	33731	
7860	33715	
7861	33694	
7862	33679	
7863	33678	
7864	33690	
7865	33708	
7866	33727	
7867	33752	
7868	33788	
7869	33833	
7870	33876	
7871	33898	
7872	33888	
7873	33851	
7874	33809	
7875	33786	
7876	33795	
7877	33829	
7878	33869	
7879	33892	
7880	33890	
7881	33866	
7882	33836	
7883	33813	
7884	33804	
7885	33804	
7886	33806	
7887	33809	
7888	33815	
7889	33828	
7890	33849	
7891	33874	
7892	33892	
7893	33894	
7894	33879	
7895	33854	
7896	33827	
7897	33805	
7898	33791	
7899	33783	
7900	33779	
7901	33780	
7902	33786	
7903	33799	
7904	33815	
7905	33830	
7906	33841	
7907	33847	
7908	33846	
7909	33841	
7910	33832	
7911	33821	
7912	33815	
7913	33817	
7914	33828	
7915	33842	
7916	33853	
7917	33854	
7918	33848	
7919	33842	
7920	33843	
7921	33851	
7922	33858	
7923	33852	
7924	33827	
7925	33791	
7926	33760	
7927	33752	
7928	33771	
7929	33806	
7930	33837	
7931	33850	
7932	33842	
7933	33825	
7934	33814	
7935	33816	
7936	33826	
7937	33826	
7938	33807	
7939	33768	
7940	33725	
7941	33698	
7942	33699	
7943	33723	
7944	33752	
7945	33770	
7946	33768	
7947	33756	
7948	33748	
7949	33759	
7950	33786	
7951	33817	
7952	33834	
7953	33828	
7954	33806	
7955	33784	
7956	33776	
7957	33786	
7958	33805	
7959	33819	
7960	33821	
7961	33815	
7962	33809	
7963	33810	
7964	33815	
7965	33816	
7966	33804	
7967	33782	
7968	33757	
7969	33741	
7970	33739	
7971	33749	
7972	33765	
7973	33781	
7974	33793	
7975	33798	
7976	33792	
7977	33774	
7978	33745	
7979	33714	
7980	33692	
7981	33687	
7982	33700	
7983	33724	
7984	33747	
7985	33760	
7986	33759	
7987	33746	
7988	33726	
7989	33708	
7990	33695	
7991	33695	
7992	33707	
7993	33727	
7994	33746	
7995	33756	
7996	33750	
7997	33732	
7998	33713	
7999	33702	
8000	33707	
8001	33726	
8002	33752	
8003	33777	
8004	33798	
8005	33815	
8006	33832	
8007	33851	
8008	33872	
8009	33892	
8010	33906	
8011	33913	
8012	33913	
8013	33910	
8014	33907	
8015	33906	
8016	33904	
8017	33900	
8018	33894	
8019	33888	
8020	33889	
8021	33905	
8022	33937	
8023	33982	
8024	34028	
8025	34065	
8026	34085	
8027	34089	
8028	34088	
8029	34094	
8030	34116	
8031	34149	
8032	34183	
8033	34204	
8034	34204	
8035	34188	
8036	34165	
8037	34143	
8038	34126	
8039	34110	
8040	34091	
8041	34069	
8042	34047	
8043	34033	
8044	34031	
8045	34040	
8046	34049	
8047	34048	
8048	34031	
8049	34005	
8050	33981	
8051	33974	
8052	33986	
8053	34011	
8054	34038	
8055	34057	
8056	34065	
8057	34064	
8058	34058	
8059	34048	
8060	34029	
8061	33999	
8062	33954	
8063	33900	
8064	33846	
8065	33798	
8066	33764	
8067	33741	
8068	33728	
8069	33722	
8070	33723	
8071	33734	
8072	33756	
8073	33784	
8074	33810	
8075	33824	
8076	33819	
8077	33798	
8078	33770	
8079	33750	
8080	33746	
8081	33757	
8082	33770	
8083	33771	
8084	33755	
8085	33725	
8086	33695	
8087	33676	
8088	33670	
8089	33670	
8090	33666	
8091	33654	
8092	33637	
8093	33621	
8094	33610	
8095	33603	
8096	33594	
8097	33578	
8098	33556	
8099	33537	
8100	33526	
8101	33526	
8102	33531	
8103	33535	
8104	33533	
8105	33525	
8106	33516	
8107	33511	
8108	33511	
8109	33514	
8110	33517	
8111	33519	
8112	33520	
8113	33522	
8114	33528	
8115	33536	
8116	33545	
8117	33550	
8118	33547	
8119	33534	
8120	33511	
8121	33483	
8122	33455	
8123	33433	
8124	33422	
8125	33424	
8126	33438	
8127	33460	
8128	33487	
8129	33513	
8130	33533	
8131	33546	
8132	33553	
8133	33556	
8134	33557	
8135	33554	
8136	33547	
8137	33540	
8138	33538	
8139	33549	
8140	33573	
8141	33606	
8142	33635	
8143	33652	
8144	33656	
8145	33658	
8146	33669	
8147	33698	
8148	33743	
8149	33794	
8150	33843	
8151	33890	
8152	33944	
8153	34017	
8154	34111	
8155	34216	
8156	34311	
8157	34376	
8158	34405	
8159	34407	
8160	34397	
8161	34380	
8162	34337	
8163	34226	
8164	33989	
8165	33587	
8166	33014	
8167	32316	
8168	31580	
8169	30910	
8170	30382	
8171	30018	
8172	29778	
8173	29582	
8174	29355	
8175	29065	
8176	28737	
8177	28429	
8178	28188	
8179	28018	
8180	27873	
8181	27693	
8182	27451	
8183	27182	
8184	26980	
8185	26955	
8186	27176	
8187	27637	
8188	28256	
8189	28913	
8190	29505	
8191	29984	
8192	30362	
8193	30685	
8194	30996	
8195	31307	
8196	31606	
8197	31870	
8198	32093	
8199	32291	
8200	32480	
8201	32666	
8202	32828	
8203	32942	
8204	33000	
8205	33025	
8206	33061	
8207	33144	
8208	33271	
8209	33409	
8210	33515	
8211	33572	
8212	33592	
8213	33609	
8214	33645	
8215	33695	
8216	33739	
8217	33756	
8218	33744	
8219	33718	
8220	33698	
8221	33690	
8222	33693	
8223	33700	
8224	33710	
8225	33732	
8226	33769	
8227	33814	
8228	33851	
8229	33862	
8230	33848	
8231	33824	
8232	33810	
8233	33818	
8234	33841	
8235	33859	
8236	33857	
8237	33833	
8238	33806	
8239	33796	
8240	33813	
8241	33850	
8242	33883	
8243	33893	
8244	33877	
8245	33849	
8246	33831	
8247	33836	
8248	33858	
8249	33878	
8250	33881	
8251	33866	
8252	33848	
8253	33847	
8254	33871	
8255	33909	
8256	33941	
8257	33950	
8258	33935	
8259	33908	
8260	33889	
8261	33887	
8262	33899	
8263	33914	
8264	33924	
8265	33926	
8266	33929	
8267	33937	
8268	33949	
8269	33957	
8270	33950	
8271	33928	
8272	33902	
8273	33888	
8274	33899	
8275	33933	
8276	33973	
8277	34000	
8278	34000	
8279	33977	
8280	33946	
8281	33925	
8282	33921	
8283	33927	
8284	33932	
8285	33929	
8286	33919	
8287	33910	
8288	33909	
8289	33918	
8290	33929	
8291	33937	
8292	33937	
8293	33934	
8294	33933	
8295	33938	
8296	33948	
8297	33957	
8298	33963	
8299	33967	
8300	33972	
8301	33979	
8302	33985	
8303	33986	
8304	33981	
8305	33973	
8306	33972	
8307	33984	
8308	34008	
8309	34032	
8310	34049	
8311	34053	
8312	34051	
8313	34050	
8314	34055	
8315	34060	
8316	34058	
8317	34043	
8318	34020	
8319	34003	
8320	34002	
8321	34019	
8322	34043	
8323	34062	
8324	34069	
8325	34066	
8326	34061	
8327	34060	
8328	34060	
8329	34055	
8330	34042	
8331	34030	
8332	34029	
8333	34045	
8334	34073	
8335	34096	
8336	34099	
8337	34082	
8338	34062	
8339	34061	
8340	34089	
8341	34138	
8342	34183	
8343	34201	
8344	34186	
8345	34154	
8346	34132	
8347	34140	
8348	34179	
8349	34229	
8350	34264	
8351	34273	
8352	34259	
8353	34243	
8354	34241	
8355	34258	
8356	34284	
8357	34301	
8358	34301	
8359	34289	
8360	34282	
8361	34294	
8362	34329	
8363	34371	
8364	34403	
8365	34412	
8366	34401	
8367	34387	
8368	34387	
8369	34414	
8370	34462	
8371	34517	
8372	34564	
8373	34592	
8374	34601	
8375	34598	
8376	34594	
8377	34599	
8378	34615	
8379	34642	
8380	34670	
8381	34693	
8382	34709	
8383	34724	
8384	34743	
8385	34769	
8386	34800	
8387	34828	
8388	34846	
8389	34857	
8390	34868	
8391	34889	
8392	34924	
8393	34969	
8394	35015	
8395	35050	
8396	35069	
8397	35076	
8398	35081	
8399	35095	
8400	35122	
8401	35162	
8402	35208	
8403	35251	
8404	35289	
8405	35323	
8406	35358	
8407	35396	
8408	35438	
8409	35481	
8410	35525	
8411	35567	
8412	35610	
8413	35652	
8414	35695	
8415	35741	
8416	35790	
8417	35841	
8418	35890	
8419	35932	
8420	35964	
8421	35988	
8422	36009	
8423	36032	
8424	36059	
8425	36087	
8426	36115	
8427	36143	
8428	36173	
8429	36207	
8430	36244	
8431	36280	
8432	36313	
8433	36339	
8434	36360	
8435	36377	
8436	36389	
8437	36392	
8438	36384	
8439	36368	
8440	36350	
8441	36338	
8442	36334	
8443	36336	
8444	36337	
8445	36330	
8446	36314	
8447	36293	
8448	36272	
8449	36252	
8450	36231	
8451	36209	
8452	36187	
8453	36171	
8454	36162	
8455	36153	
8456	36131	
8457	36088	
8458	36024	
8459	35955	
8460	35893	
8461	35846	
8462	35803	
8463	35750	
8464	35681	
8465	35604	
8466	35535	
8467	35489	
8468	35462	
8469	35438	
8470	35396	
8471	35330	
8472	35253	
8473	35181	
8474	35124	
8475	35077	
8476	35025	
8477	34958	
8478	34878	
8479	34793	
8480	34712	
8481	34640	
8482	34575	
8483	34518	
8484	34469	
8485	34430	
8486	34397	
8487	34364	
8488	34323	
8489	34274	
8490	34223	
8491	34175	
8492	34133	
8493	34091	
8494	34047	
8495	33999	
8496	33956	
8497	33926	
8498	33911	
8499	33906	
8500	33896	
8501	33870	
8502	33826	
8503	33773	
8504	33732	
8505	33716	
8506	33727	
8507	33749	
8508	33760	
8509	33745	
8510	33702	
8511	33645	
8512	33594	
8513	33561	
8514	33550	
8515	33551	
8516	33554	
8517	33553	
8518	33544	
8519	33532	
8520	33519	
8521	33508	
8522	33497	
8523	33485	
8524	33471	
8525	33456	
8526	33446	
8527	33442	
8528	33445	
8529	33454	
8530	33467	
8531	33482	
8532	33497	
8533	33511	
8534	33520	
8535	33519	
8536	33507	
8537	33485	
8538	33462	
8539	33446	
8540	33443	
8541	33452	
8542	33467	
8543	33479	
8544	33483	
8545	33483	
8546	33486	
8547	33496	
8548	33513	
8549	33532	
8550	33544	
8551	33549	
8552	33550	
8553	33555	
8554	33567	
8555	33583	
8556	33594	
8557	33595	
8558	33587	
8559	33573	
8560	33562	
8561	33553	
8562	33544	
8563	33529	
8564	33507	
8565	33488	
8566	33482	
8567	33496	
8568	33527	
8569	33563	
8570	33589	
8571	33594	
8572	33584	
8573	33571	
8574	33569	
8575	33586	
8576	33617	
8577	33647	
8578	33663	
8579	33655	
8580	33627	
8581	33591	
8582	33565	
8583	33558	
8584	33574	
8585	33605	
8586	33640	
8587	33666	
8588	33677	
8589	33671	
8590	33650	
8591	33624	
8592	33600	
8593	33586	
8594	33585	
8595	33596	
8596	33614	
8597	33633	
8598	33650	
8599	33662	
8600	33667	
8601	33668	
8602	33666	
8603	33663	
8604	33663	
8605	33666	
8606	33671	
8607	33678	
8608	33685	
8609	33694	
8610	33706	
8611	33720	
8612	33731	
8613	33735	
8614	33726	
8615	33709	
8616	33691	
8617	33682	
8618	33686	
8619	33701	
8620	33718	
8621	33727	
8622	33727	
8623	33723	
8624	33719	
8625	33719	
8626	33719	
8627	33710	
8628	33691	
8629	33665	
8630	33646	
8631	33643	
8632	33659	
8633	33686	
8634	33707	
8635	33711	
8636	33692	
8637	33660	
8638	33631	
8639	33620	
8640	33632	
8641	33659	
8642	33687	
8643	33700	
8644	33690	
8645	33663	
8646	33630	
8647	33609	
8648	33608	
8649	33625	
8650	33648	
8651	33664	
8652	33664	
8653	33651	
8654	33635	
8655	33625	
8656	33620	
8657	33615	
8658	33604	
8659	33587	
8660	33571	
8661	33564	
8662	33570	
8663	33586	
8664	33602	
8665	33611	
8666	33610	
8667	33605	
8668	33603	
8669	33607	
8670	33615	
8671	33621	
8672	33620	
8673	33612	
8674	33603	
8675	33596	
8676	33591	
8677	33584	
8678	33573	
8679	33558	
8680	33548	
8681	33550	
8682	33565	
8683	33587	
8684	33606	
8685	33612	
8686	33608	
8687	33598	
8688	33594	
8689	33597	
8690	33604	
8691	33607	
8692	33601	
8693	33587	
8694	33573	
8695	33568	
8696	33573	
8697	33584	
8698	33591	
8699	33586	
8700	33568	
8701	33547	
8702	33534	
8703	33537	
8704	33555	
8705	33580	
8706	33605	
8707	33626	
8708	33644	
8709	33661	
8710	33679	
8711	33694	
8712	33705	
8713	33709	
8714	33710	
8715	33713	
8716	33723	
8717	33736	
8718	33744	
8719	33740	
8720	33722	
8721	33695	
8722	33673	
8723	33668	
8724	33686	
8725	33725	
8726	33773	
8727	33821	
8728	33861	
8729	33892	
8730	33917	
8731	33937	
8732	33954	
8733	33968	
8734	33976	
8735	33977	
8736	33970	
8737	33958	
8738	33944	
8739	33935	
8740	33933	
8741	33937	
8742	33942	
8743	33942	
8744	33933	
8745	33916	
8746	33897	
8747	33887	
8748	33892	
8749	33912	
8750	33937	
8751	33957	
8752	33962	
8753	33953	
8754	33937	
8755	33925	
8756	33925	
8757	33936	
8758	33951	
8759	33961	
8760	33956	
8761	33934	
8762	33898	
8763	33852	
8764	33805	
8765	33767	
8766	33742	
8767	33732	
8768	33729	
8769	33723	
8770	33702	
8771	33666	
8772	33626	
8773	33600	
8774	33600	
8775	33626	
8776	33661	
8777	33683	
8778	33679	
8779	33652	
8780	33619	
8781	33603	
8782	33609	
8783	33631	
8784	33651	
8785	33655	
8786	33642	
8787	33622	
8788	33607	
8789	33599	
8790	33592	
8791	33575	
8792	33543	
8793	33502	
8794	33465	
8795	33444	
8796	33438	
8797	33440	
8798	33441	
8799	33435	
8800	33429	
8801	33429	
8802	33438	
8803	33450	
8804	33452	
8805	33436	
8806	33407	
8807	33381	
8808	33375	
8809	33393	
8810	33425	
8811	33453	
8812	33463	
8813	33455	
8814	33443	
8815	33442	
8816	33457	
8817	33478	
8818	33488	
8819	33475	
8820	33442	
8821	33406	
8822	33384	
8823	33386	
8824	33404	
8825	33422	
8826	33426	
8827	33413	
8828	33390	
8829	33372	
8830	33367	
8831	33375	
8832	33388	
8833	33400	
8834	33409	
8835	33416	
8836	33427	
8837	33440	
8838	33453	
8839	33460	
8840	33459	
8841	33453	
8842	33444	
8843	33438	
8844	33433	
8845	33429	
8846	33422	
8847	33413	
8848	33409	
8849	33417	
8850	33444	
8851	33489	
8852	33545	
8853	33602	
8854	33654	
8855	33699	
8856	33743	
8857	33791	
8858	33845	
8859	33900	
8860	33947	
8861	33975	
8862	33977	
8863	33957	
8864	33918	
8865	33861	
8866	33774	
8867	33626	
8868	33376	
8869	32988	
8870	32453	
8871	31803	
8872	31113	
8873	30481	
8874	29988	
8875	29667	
8876	29487	
8877	29371	
8878	29234	
8879	29030	
8880	28767	
8881	28498	
8882	28280	
8883	28135	
8884	28038	
8885	27933	
8886	27780	
8887	27596	
8888	27456	
8889	27464	
8890	27696	
8891	28157	
8892	28772	
8893	29420	
8894	29992	
8895	30434	
8896	30759	
8897	31022	
8898	31279	
8899	31557	
8900	31847	
8901	32120	
8902	32352	
8903	32535	
8904	32677	
8905	32792	
8906	32888	
8907	32967	
8908	33035	
8909	33100	
8910	33177	
8911	33272	
8912	33375	
8913	33464	
8914	33518	
8915	33536	
8916	33539	
8917	33549	
8918	33577	
8919	33609	
8920	33623	
8921	33604	
8922	33563	
8923	33532	
8924	33535	
8925	33573	
8926	33621	
8927	33646	
8928	33635	
8929	33604	
8930	33585	
8931	33603	
8932	33650	
8933	33698	
8934	33713	
8935	33685	
8936	33634	
8937	33594	
8938	33589	
8939	33618	
8940	33659	
8941	33684	
8942	33681	
8943	33660	
8944	33642	
8945	33644	
8946	33670	
8947	33708	
8948	33740	
8949	33759	
8950	33763	
8951	33759	
8952	33753	
8953	33744	
8954	33728	
8955	33705	
8956	33680	
8957	33665	
8958	33665	
8959	33677	
8960	33692	
8961	33700	
8962	33698	
8963	33695	
8964	33698	
8965	33714	
8966	33737	
8967	33755	
8968	33761	
8969	33754	
8970	33741	
8971	33735	
8972	33738	
8973	33746	
8974	33749	
8975	33741	
8976	33725	
8977	33711	
8978	33710	
8979	33725	
8980	33749	
8981	33766	
8982	33764	
8983	33742	
8984	33709	
8985	33680	
8986	33669	
8987	33675	
8988	33693	
8989	33713	
8990	33729	
8991	33743	
8992	33759	
8993	33778	
8994	33798	
8995	33812	
8996	33815	
8997	33805	
8998	33785	
8999	33763	
9000	33745	
9001	33736	
9002	33737	
9003	33745	
9004	33753	
9005	33752	
9006	33737	
9007	33710	
9008	33680	
9009	33661	
9010	33667	
9011	33699	
9012	33750	
9013	33803	
9014	33840	
9015	33851	
9016	33841	
9017	33821	
9018	33803	
9019	33796	
9020	33798	
9021	33804	
9022	33809	
9023	33811	
9024	33813	
9025	33818	
9026	33825	
9027	33831	
9028	33835	
9029	33838	
9030	33842	
9031	33851	
9032	33868	
9033	33886	
9034	33897	
9035	33896	
9036	33883	
9037	33863	
9038	33844	
9039	33834	
9040	33835	
9041	33846	
9042	33867	
9043	33895	
9044	33925	
9045	33950	
9046	33963	
9047	33962	
9048	33954	
9049	33952	
9050	33968	
9051	34003	
9052	34045	
9053	34078	
9054	34086	
9055	34071	
9056	34044	
9057	34024	
9058	34023	
9059	34039	
9060	34060	
9061	34075	
9062	34078	
9063	34076	
9064	34078	
9065	34088	
9066	34102	
9067	34112	
9068	34112	
9069	34108	
9070	34112	
9071	34133	
9072	34173	
9073	34221	
9074	34261	
9075	34282	
9076	34281	
9077	34267	
9078	34250	
9079	34239	
9080	34237	
9081	34244	
9082	34259	
9083	34284	
9084	34316	
9085	34354	
9086	34389	
9087	34416	
9088	34436	
9089	34457	
9090	34490	
9091	34538	
9092	34595	
9093	34647	
9094	34683	
9095	34699	
9096	34705	
9097	34713	
9098	34730	
9099	34755	
9100	34778	
9101	34794	
9102	34802	
9103	34814	
9104	34840	
9105	34882	
9106	34935	
9107	34986	
9108	35026	
9109	35056	
9110	35081	
9111	35109	
9112	35143	
9113	35183	
9114	35228	
9115	35275	
9116	35322	
9117	35365	
9118	35403	
9119	35440	
9120	35477	
9121	35519	
9122	35562	
9123	35603	
9124	35638	
9125	35666	
9126	35689	
9127	35709	
9128	35733	
9129	35761	
9130	35795	
9131	35828	
9132	35856	
9133	35873	
9134	35881	
9135	35886	
9136	35894	
9137	35905	
9138	35917	
9139	35928	
9140	35933	
9141	35935	
9142	35936	
9143	35939	
9144	35943	
9145	35944	
9146	35940	
9147	35928	
9148	35912	
9149	35899	
9150	35895	
9151	35900	
9152	35905	
9153	35899	
9154	35877	
9155	35848	
9156	35823	
9157	35807	
9158	35788	
9159	35755	
9160	35701	
9161	35639	
9162	35588	
9163	35560	
9164	35546	
9165	35525	
9166	35481	
9167	35415	
9168	35346	
9169	35289	
9170	35249	
9171	35211	
9172	35163	
9173	35100	
9174	35031	
9175	34966	
9176	34910	
9177	34854	
9178	34792	
9179	34718	
9180	34638	
9181	34560	
9182	34487	
9183	34418	
9184	34353	
9185	34292	
9186	34240	
9187	34201	
9188	34173	
9189	34148	
9190	34118	
9191	34077	
9192	34025	
9193	33968	
9194	33910	
9195	33856	
9196	33806	
9197	33763	
9198	33727	
9199	33701	
9200	33678	
9201	33651	
9202	33611	
9203	33557	
9204	33495	
9205	33442	
9206	33411	
9207	33407	
9208	33421	
9209	33437	
9210	33442	
9211	33430	
9212	33406	
9213	33376	
9214	33342	
9215	33305	
9216	33268	
9217	33234	
9218	33212	
9219	33203	
9220	33204	
9221	33207	
9222	33205	
9223	33199	
9224	33197	
9225	33205	
9226	33224	
9227	33246	
9228	33259	
9229	33258	
9230	33248	
9231	33241	
9232	33246	
9233	33264	
9234	33285	
9235	33294	
9236	33285	
9237	33267	
9238	33255	
9239	33264	
9240	33296	
9241	33337	
9242	33367	
9243	33371	
9244	33349	
9245	33316	
9246	33291	
9247	33282	
9248	33283	
9249	33281	
9250	33265	
9251	33237	
9252	33210	
9253	33203	
9254	33223	
9255	33264	
9256	33307	
9257	33335	
9258	33337	
9259	33322	
9260	33303	
9261	33295	
9262	33303	
9263	33321	
9264	33340	
9265	33352	
9266	33356	
9267	33354	
9268	33351	
9269	33349	
9270	33349	
9271	33351	
9272	33358	
9273	33370	
9274	33385	
9275	33398	
9276	33403	
9277	33396	
9278	33379	
9279	33359	
9280	33342	
9281	33335	
9282	33338	
9283	33347	
9284	33360	
9285	33376	
9286	33393	
9287	33412	
9288	33428	
9289	33434	
9290	33424	
9291	33399	
9292	33366	
9293	33338	
9294	33327	
9295	33337	
9296	33360	
9297	33384	
9298	33397	
9299	33398	
9300	33393	
9301	33392	
9302	33404	
9303	33425	
9304	33445	
9305	33454	
9306	33449	
9307	33435	
9308	33420	
9309	33413	
9310	33414	
9311	33417	
9312	33416	
9313	33406	
9314	33391	
9315	33374	
9316	33361	
9317	33353	
9318	33349	
9319	33349	
9320	33352	
9321	33361	
9322	33374	
9323	33389	
9324	33401	
9325	33405	
9326	33401	
9327	33394	
9328	33390	
9329	33395	
9330	33408	
9331	33424	
9332	33435	
9333	33438	
9334	33433	
9335	33427	
9336	33422	
9337	33421	
9338	33419	
9339	33410	
9340	33394	
9341	33373	
9342	33355	
9343	33348	
9344	33354	
9345	33368	
9346	33383	
9347	33390	
9348	33386	
9349	33372	
9350	33357	
9351	33348	
9352	33352	
9353	33369	
9354	33392	
9355	33410	
9356	33414	
9357	33399	
9358	33368	
9359	33332	
9360	33304	
9361	33294	
9362	33303	
9363	33325	
9364	33343	
9365	33344	
9366	33322	
9367	33286	
9368	33249	
9369	33230	
9370	33237	
9371	33264	
9372	33296	
9373	33314	
9374	33310	
9375	33286	
9376	33256	
9377	33233	
9378	33226	
9379	33230	
9380	33237	
9381	33235	
9382	33224	
9383	33208	
9384	33195	
9385	33193	
9386	33206	
9387	33230	
9388	33260	
9389	33288	
9390	33309	
9391	33320	
9392	33320	
9393	33310	
9394	33293	
9395	33273	
9396	33257	
9397	33249	
9398	33252	
9399	33264	
9400	33282	
9401	33300	
9402	33310	
9403	33310	
9404	33299	
9405	33284	
9406	33274	
9407	33279	
9408	33303	
9409	33338	
9410	33374	
9411	33394	
9412	33392	
9413	33374	
9414	33356	
9415	33356	
9416	33380	
9417	33422	
9418	33462	
9419	33484	
9420	33479	
9421	33457	
9422	33436	
9423	33432	
9424	33451	
9425	33483	
9426	33514	
9427	33533	
9428	33540	
9429	33546	
9430	33563	
9431	33599	
9432	33649	
9433	33698	
9434	33734	
9435	33750	
9436	33749	
9437	33736	
9438	33717	
9439	33694	
9440	33667	
9441	33640	
9442	33617	
9443	33604	
9444	33602	
9445	33611	
9446	33625	
9447	33641	
9448	33653	
9449	33657	
9450	33652	
9451	33638	
9452	33620	
9453	33604	
9454	33596	
9455	33594	
9456	33593	
9457	33585	
9458	33565	
9459	33534	
9460	33500	
9461	33470	
9462	33446	
9463	33426	
9464	33405	
9465	33379	
9466	33353	
9467	33334	
9468	33328	
9469	33336	
9470	33354	
9471	33371	
9472	33382	
9473	33385	
9474	33380	
9475	33370	
9476	33357	
9477	33342	
9478	33328	
9479	33319	
9480	33317	
9481	33319	
9482	33321	
9483	33312	
9484	33287	
9485	33247	
9486	33196	
9487	33147	
9488	33109	
9489	33089	
9490	33089	
9491	33101	
9492	33112	
9493	33110	
9494	33088	
9495	33051	
9496	33011	
9497	32984	
9498	32977	
9499	32990	
9500	33011	
9501	33029	
9502	33033	
9503	33025	
9504	33011	
9505	32999	
9506	32992	
9507	32992	
9508	32993	
9509	32995	
9510	33000	
9511	33011	
9512	33029	
9513	33052	
9514	33070	
9515	33079	
9516	33074	
9517	33060	
9518	33042	
9519	33027	
9520	33016	
9521	33009	
9522	33005	
9523	33002	
9524	33000	
9525	33001	
9526	33003	
9527	33008	
9528	33014	
9529	33024	
9530	33034	
9531	33043	
9532	33046	
9533	33041	
9534	33026	
9535	33008	
9536	32993	
9537	32990	
9538	32998	
9539	33016	
9540	33036	
9541	33054	
9542	33071	
9543	33090	
9544	33112	
9545	33136	
9546	33159	
9547	33181	
9548	33207	
9549	33246	
9550	33308	
9551	33392	
9552	33489	
9553	33581	
9554	33654	
9555	33704	
9556	33738	
9557	33767	
9558	33795	
9559	33815	
9560	33800	
9561	33714	
9562	33520	
9563	33191	
9564	32723	
9565	32137	
9566	31488	
9567	30847	
9568	30288	
9569	29860	
9570	29566	
9571	29368	
9572	29201	
9573	29011	
9574	28777	
9575	28524	
9576	28291	
9577	28107	
9578	27961	
9579	27815	
9580	27629	
9581	27408	
9582	27212	
9583	27139	
9584	27277	
9585	27652	
9586	28215	
9587	28856	
9588	29462	
9589	29959	
9590	30336	
9591	30631	
9592	30893	
9593	31150	
9594	31401	
9595	31629	
9596	31825	
9597	31997	
9598	32162	
9599	32326	
9600	32478	
9601	32594	
9602	32658	
9603	32680	
9604	32686	
9605	32708	
9606	32758	
9607	32826	
9608	32889	
9609	32930	
9610	32949	
9611	32961	
9612	32979	
9613	33007	
9614	33036	
9615	33053	
9616	33052	
9617	33041	
9618	33032	
9619	33034	
9620	33044	
9621	33051	
9622	33047	
9623	33032	
9624	33018	
9625	33016	
9626	33031	
9627	33055	
9628	33077	
9629	33089	
9630	33093	
9631	33095	
9632	33101	
9633	33109	
9634	33113	
9635	33108	
9636	33096	
9637	33090	
9638	33099	
9639	33122	
9640	33148	
9641	33160	
9642	33150	
9643	33125	
9644	33103	
9645	33099	
9646	33118	
9647	33148	
9648	33174	
9649	33184	
9650	33182	
9651	33181	
9652	33191	
9653	33210	
9654	33226	
9655	33227	
9656	33210	
9657	33184	
9658	33166	
9659	33167	
9660	33185	
9661	33207	
9662	33218	
9663	33214	
9664	33202	
9665	33193	
9666	33195	
9667	33204	
9668	33209	
9669	33204	
9670	33190	
9671	33179	
9672	33182	
9673	33199	
9674	33219	
9675	33226	
9676	33209	
9677	33177	
9678	33146	
9679	33134	
9680	33144	
9681	33168	
9682	33186	
9683	33190	
9684	33183	
9685	33178	
9686	33189	
9687	33217	
9688	33250	
9689	33274	
9690	33276	
9691	33260	
9692	33236	
9693	33217	
9694	33209	
9695	33213	
9696	33225	
9697	33243	
9698	33263	
9699	33283	
9700	33297	
9701	33296	
9702	33277	
9703	33248	
9704	33224	
9705	33220	
9706	33243	
9707	33282	
9708	33317	
9709	33329	
9710	33317	
9711	33294	
9712	33284	
9713	33299	
9714	33337	
9715	33378	
9716	33400	
9717	33394	
9718	33367	
9719	33338	
9720	33324	
9721	33330	
9722	33347	
9723	33359	
9724	33358	
9725	33344	
9726	33327	
9727	33319	
9728	33322	
9729	33334	
9730	33348	
9731	33358	
9732	33364	
9733	33368	
9734	33372	
9735	33378	
9736	33384	
9737	33388	
9738	33389	
9739	33389	
9740	33390	
9741	33393	
9742	33397	
9743	33402	
9744	33407	
9745	33414	
9746	33426	
9747	33443	
9748	33461	
9749	33477	
9750	33486	
9751	33488	
9752	33488	
9753	33493	
9754	33509	
9755	33536	
9756	33567	
9757	33591	
9758	33599	
9759	33593	
9760	33580	
9761	33576	
9762	33587	
9763	33615	
9764	33647	
9765	33673	
9766	33685	
9767	33687	
9768	33687	
9769	33696	
9770	33716	
9771	33740	
9772	33761	
9773	33774	
9774	33782	
9775	33793	
9776	33814	
9777	33843	
9778	33874	
9779	33898	
9780	33909	
9781	33909	
9782	33910	
9783	33921	
9784	33950	
9785	33992	
9786	34040	
9787	34084	
9788	34116	
9789	34139	
9790	34157	
9791	34179	
9792	34206	
9793	34240	
9794	34281	
9795	34327	
9796	34376	
9797	34425	
9798	34469	
9799	34502	
9800	34525	
9801	34542	
9802	34564	
9803	34599	
9804	34646	
9805	34698	
9806	34744	
9807	34780	
9808	34807	
9809	34834	
9810	34871	
9811	34920	
9812	34975	
9813	35025	
9814	35063	
9815	35086	
9816	35101	
9817	35114	
9818	35129	
9819	35148	
9820	35167	
9821	35187	
9822	35207	
9823	35228	
9824	35254	
9825	35285	
9826	35319	
9827	35353	
9828	35385	
9829	35412	
9830	35434	
9831	35452	
9832	35469	
9833	35486	
9834	35503	
9835	35517	
9836	35525	
9837	35526	
9838	35521	
9839	35516	
9840	35516	
9841	35522	
9842	35528	
9843	35524	
9844	35501	
9845	35456	
9846	35397	
9847	35343	
9848	35308	
9849	35300	
9850	35310	
9851	35322	
9852	35318	
9853	35292	
9854	35248	
9855	35196	
9856	35142	
9857	35091	
9858	35044	
9859	35000	
9860	34956	
9861	34909	
9862	34854	
9863	34790	
9864	34718	
9865	34646	
9866	34585	
9867	34536	
9868	34495	
9869	34452	
9870	34402	
9871	34347	
9872	34293	
9873	34244	
9874	34197	
9875	34141	
9876	34066	
9877	33975	
9878	33882	
9879	33805	
9880	33752	
9881	33717	
9882	33686	
9883	33641	
9884	33579	
9885	33507	
9886	33439	
9887	33385	
9888	33350	
9889	33326	
9890	33302	
9891	33268	
9892	33221	
9893	33165	
9894	33107	
9895	33059	
9896	33026	
9897	33010	
9898	33001	
9899	32991	
9900	32971	
9901	32938	
9902	32899	
9903	32859	
9904	32825	
9905	32802	
9906	32788	
9907	32780	
9908	32774	
9909	32767	
9910	32759	
9911	32751	
9912	32746	
9913	32746	
9914	32748	
9915	32749	
9916	32745	
9917	32732	
9918	32713	
9919	32692	
9920	32676	
9921	32665	
9922	32660	
9923	32655	
9924	32648	
9925	32637	
9926	32625	
9927	32616	
9928	32614	
9929	32619	
9930	32626	
9931	32633	
9932	32637	
9933	32639	
9934	32642	
9935	32649	
9936	32659	
9937	32668	
9938	32671	
9939	32664	
9940	32648	
9941	32626	
9942	32607	
9943	32596	
9944	32597	
9945	32606	
9946	32617	
9947	32625	
9948	32630	
9949	32636	
9950	32649	
9951	32671	
9952	32696	
9953	32715	
9954	32718	
9955	32705	
9956	32684	
9957	32666	
9958	32663	
9959	32674	
9960	32692	
9961	32705	
9962	32706	
9963	32696	
9964	32686	
9965	32682	
9966	32687	
9967	32692	
9968	32690	
9969	32679	
9970	32666	
9971	32665	
9972	32683	
9973	32718	
9974	32753	
9975	32772	
9976	32766	
9977	32742	
9978	32719	
9979	32714	
9980	32734	
9981	32768	
9982	32799	
9983	32808	
9984	32795	
9985	32770	
9986	32751	
9987	32749	
9988	32763	
9989	32784	
9990	32797	
9991	32796	
9992	32785	
9993	32772	
9994	32764	
9995	32764	
9996	32766	
9997	32765	
9998	32758	
9999	32750	
10000	32747	
10001	32753	
10002	32766	
10003	32781	
10004	32793	
10005	32798	
10006	32797	
10007	32792	
10008	32785	
10009	32775	
10010	32762	
10011	32751	
10012	32744	
10013	32746	
10014	32756	
10015	32768	
10016	32775	
10017	32771	
10018	32755	
10019	32736	
10020	32723	
10021	32721	
10022	32729	
10023	32743	
10024	32754	
10025	32761	
10026	32764	
10027	32770	
10028	32778	
10029	32789	
10030	32796	
10031	32797	
10032	32789	
10033	32778	
10034	32768	
10035	32764	
10036	32765	
10037	32768	
10038	32768	
10039	32766	
10040	32763	
10041	32760	
10042	32758	
10043	32756	
10044	32750	
10045	32743	
10046	32736	
10047	32736	
10048	32743	
