# OpenSignals Text File Format
# {"00:80:E1:26:9E:1A":{"sensor":["ECG"],"device name":"00:80:E1:26:9E:1A","column":["nSeq","ECG"],"sync interval":2,"time":"13:28:32","comments":"","keywords":"","device connection":"UNKNOWN00:80:E1:26:9E:1A","channels":[0],"date":"2025-06-10","mode":0,"digital IO":[],"firmware version":256,"device":"cardiobanplux","position":0,"sampling rate":1000,"label":["ECG"],"resolution":[16],"special":[{}],"sleeve color":["UNKNOWN"]}}
# EndOfHeader
0	40571	
1	39995	
2	39495	
3	39055	
4	38616	
5	38120	
6	37555	
7	36963	
8	36413	
9	35959	
10	35608	
11	35332	
12	35097	
13	34885	
14	34699	
15	34535	
16	34365	
17	34140	
18	33817	
19	33403	
20	32968	
21	32612	
22	32416	
23	32379	
24	32423	
25	32437	
26	32349	
27	32173	
28	31993	
29	31901	
30	31927	
31	32023	
32	32098	
33	32086	
34	31987	
35	31865	
36	31795	
37	31808	
38	31874	
39	31931	
40	31928	
41	31865	
42	31783	
43	31732	
44	31732	
45	31763	
46	31780	
47	31755	
48	31691	
49	31624	
50	31593	
51	31611	
52	31661	
53	31700	
54	31700	
55	31656	
56	31591	
57	31539	
58	31519	
59	31526	
60	31538	
61	31538	
62	31520	
63	31497	
64	31484	
65	31488	
66	31504	
67	31519	
68	31525	
69	31522	
70	31520	
71	31523	
72	31532	
73	31539	
74	31535	
75	31519	
76	31497	
77	31479	
78	31471	
79	31472	
80	31476	
81	31477	
82	31475	
83	31473	
84	31472	
85	31474	
86	31475	
87	31472	
88	31464	
89	31454	
90	31449	
91	31451	
92	31457	
93	31463	
94	31458	
95	31441	
96	31416	
97	31392	
98	31379	
99	31383	
100	31399	
101	31419	
102	31433	
103	31435	
104	31427	
105	31415	
106	31406	
107	31405	
108	31411	
109	31417	
110	31418	
111	31409	
112	31395	
113	31384	
114	31386	
115	31406	
116	31435	
117	31460	
118	31468	
119	31455	
120	31431	
121	31410	
122	31400	
123	31398	
124	31393	
125	31375	
126	31343	
127	31308	
128	31283	
129	31277	
130	31288	
131	31308	
132	31330	
133	31347	
134	31360	
135	31367	
136	31366	
137	31355	
138	31332	
139	31299	
140	31265	
141	31236	
142	31216	
143	31202	
144	31189	
145	31173	
146	31158	
147	31151	
148	31158	
149	31177	
150	31198	
151	31208	
152	31201	
153	31178	
154	31150	
155	31126	
156	31112	
157	31109	
158	31112	
159	31117	
160	31120	
161	31118	
162	31113	
163	31104	
164	31094	
165	31085	
166	31077	
167	31067	
168	31051	
169	31030	
170	31009	
171	30995	
172	30997	
173	31018	
174	31053	
175	31090	
176	31115	
177	31116	
178	31091	
179	31048	
180	31006	
181	30980	
182	30977	
183	30991	
184	31006	
185	31008	
186	30992	
187	30966	
188	30944	
189	30938	
190	30946	
191	30959	
192	30968	
193	30968	
194	30961	
195	30950	
196	30933	
197	30908	
198	30877	
199	30848	
200	30836	
201	30848	
202	30880	
203	30915	
204	30938	
205	30946	
206	30945	
207	30945	
208	30948	
209	30950	
210	30944	
211	30926	
212	30903	
213	30887	
214	30882	
215	30882	
216	30875	
217	30853	
218	30821	
219	30792	
220	30778	
221	30780	
222	30787	
223	30788	
224	30781	
225	30771	
226	30767	
227	30775	
228	30790	
229	30805	
230	30816	
231	30821	
232	30823	
233	30820	
234	30809	
235	30782	
236	30741	
237	30696	
238	30664	
239	30659	
240	30684	
241	30727	
242	30768	
243	30788	
244	30787	
245	30777	
246	30777	
247	30796	
248	30831	
249	30866	
250	30886	
251	30886	
252	30873	
253	30862	
254	30862	
255	30874	
256	30893	
257	30916	
258	30941	
259	30970	
260	31002	
261	31036	
262	31067	
263	31093	
264	31112	
265	31122	
266	31124	
267	31119	
268	31109	
269	31099	
270	31098	
271	31113	
272	31145	
273	31191	
274	31237	
275	31269	
276	31281	
277	31273	
278	31261	
279	31262	
280	31291	
281	31343	
282	31404	
283	31451	
284	31472	
285	31471	
286	31466	
287	31470	
288	31487	
289	31504	
290	31506	
291	31493	
292	31478	
293	31483	
294	31517	
295	31568	
296	31608	
297	31618	
298	31597	
299	31565	
300	31548	
301	31558	
302	31584	
303	31603	
304	31599	
305	31575	
306	31550	
307	31544	
308	31562	
309	31591	
310	31611	
311	31612	
312	31596	
313	31580	
314	31579	
315	31599	
316	31635	
317	31674	
318	31705	
319	31721	
320	31718	
321	31696	
322	31660	
323	31620	
324	31592	
325	31586	
326	31607	
327	31647	
328	31690	
329	31721	
330	31732	
331	31729	
332	31719	
333	31710	
334	31701	
335	31687	
336	31668	
337	31647	
338	31633	
339	31637	
340	31657	
341	31686	
342	31708	
343	31715	
344	31707	
345	31696	
346	31696	
347	31711	
348	31732	
349	31744	
350	31733	
351	31698	
352	31655	
353	31620	
354	31606	
355	31611	
356	31624	
357	31630	
358	31620	
359	31598	
360	31574	
361	31560	
362	31559	
363	31568	
364	31577	
365	31577	
366	31568	
367	31553	
368	31541	
369	31542	
370	31557	
371	31582	
372	31608	
373	31628	
374	31642	
375	31654	
376	31671	
377	31694	
378	31720	
379	31737	
380	31739	
381	31725	
382	31702	
383	31679	
384	31664	
385	31658	
386	31659	
387	31666	
388	31677	
389	31691	
390	31705	
391	31714	
392	31714	
393	31704	
394	31690	
395	31679	
396	31673	
397	31673	
398	31674	
399	31673	
400	31670	
401	31667	
402	31668	
403	31671	
404	31675	
405	31674	
406	31669	
407	31660	
408	31649	
409	31638	
410	31630	
411	31627	
412	31631	
413	31642	
414	31659	
415	31675	
416	31683	
417	31678	
418	31658	
419	31631	
420	31604	
421	31587	
422	31583	
423	31589	
424	31594	
425	31590	
426	31575	
427	31552	
428	31531	
429	31521	
430	31526	
431	31540	
432	31556	
433	31569	
434	31577	
435	31585	
436	31595	
437	31607	
438	31614	
439	31610	
440	31596	
441	31576	
442	31555	
443	31539	
444	31528	
445	31520	
446	31514	
447	31513	
448	31516	
449	31521	
450	31524	
451	31521	
452	31514	
453	31505	
454	31501	
455	31501	
456	31500	
457	31493	
458	31477	
459	31456	
460	31440	
461	31439	
462	31455	
463	31484	
464	31515	
465	31538	
466	31550	
467	31556	
468	31564	
469	31583	
470	31614	
471	31654	
472	31699	
473	31747	
474	31801	
475	31863	
476	31930	
477	31993	
478	32039	
479	32058	
480	32049	
481	32022	
482	31993	
483	31977	
484	31983	
485	32006	
486	32031	
487	32040	
488	32023	
489	31980	
490	31925	
491	31873	
492	31834	
493	31806	
494	31781	
495	31753	
496	31720	
497	31690	
498	31670	
499	31661	
500	31656	
501	31642	
502	31612	
503	31567	
504	31519	
505	31480	
506	31457	
507	31449	
508	31446	
509	31441	
510	31433	
511	31425	
512	31421	
513	31420	
514	31412	
515	31390	
516	31352	
517	31303	
518	31257	
519	31222	
520	31201	
521	31185	
522	31168	
523	31146	
524	31126	
525	31116	
526	31120	
527	31136	
528	31151	
529	31157	
530	31150	
531	31136	
532	31118	
533	31099	
534	31074	
535	31039	
536	30998	
537	30966	
538	30955	
539	30970	
540	30997	
541	31015	
542	31008	
543	30981	
544	30951	
545	30940	
546	30951	
547	30970	
548	30975	
549	30956	
550	30921	
551	30894	
552	30890	
553	30909	
554	30933	
555	30939	
556	30920	
557	30887	
558	30862	
559	30860	
560	30878	
561	30898	
562	30903	
563	30890	
564	30869	
565	30854	
566	30854	
567	30865	
568	30878	
569	30889	
570	30898	
571	30909	
572	30918	
573	30915	
574	30891	
575	30853	
576	30817	
577	30804	
578	30816	
579	30839	
580	30847	
581	30823	
582	30768	
583	30699	
584	30637	
585	30588	
586	30543	
587	30491	
588	30433	
589	30388	
590	30390	
591	30470	
592	30643	
593	30903	
594	31234	
595	31631	
596	32115	
597	32725	
598	33500	
599	34450	
600	35538	
601	36676	
602	37753	
603	38663	
604	39337	
605	39768	
606	39997	
607	40104	
608	40169	
609	40246	
610	40356	
611	40492	
612	40638	
613	40783	
614	40923	
615	41054	
616	41160	
617	41205	
618	41145	
619	40951	
620	40632	
621	40232	
622	39813	
623	39414	
624	39025	
625	38606	
626	38120	
627	37580	
628	37034	
629	36540	
630	36113	
631	35716	
632	35295	
633	34820	
634	34318	
635	33849	
636	33467	
637	33190	
638	33001	
639	32876	
640	32796	
641	32746	
642	32695	
643	32592	
644	32390	
645	32079	
646	31702	
647	31339	
648	31064	
649	30911	
650	30858	
651	30848	
652	30828	
653	30773	
654	30692	
655	30618	
656	30580	
657	30590	
658	30637	
659	30692	
660	30724	
661	30713	
662	30664	
663	30603	
664	30566	
665	30575	
666	30620	
667	30668	
668	30681	
669	30645	
670	30580	
671	30524	
672	30510	
673	30536	
674	30567	
675	30567	
676	30523	
677	30456	
678	30407	
679	30402	
680	30439	
681	30486	
682	30512	
683	30504	
684	30473	
685	30445	
686	30438	
687	30449	
688	30460	
689	30455	
690	30435	
691	30416	
692	30419	
693	30450	
694	30492	
695	30521	
696	30518	
697	30493	
698	30469	
699	30472	
700	30504	
701	30547	
702	30574	
703	30571	
704	30546	
705	30521	
706	30510	
707	30511	
708	30508	
709	30490	
710	30464	
711	30449	
712	30460	
713	30497	
714	30541	
715	30568	
716	30570	
717	30556	
718	30544	
719	30546	
720	30556	
721	30559	
722	30545	
723	30516	
724	30489	
725	30480	
726	30497	
727	30529	
728	30555	
729	30561	
730	30544	
731	30514	
732	30486	
733	30471	
734	30467	
735	30467	
736	30464	
737	30457	
738	30448	
739	30442	
740	30441	
741	30442	
742	30441	
743	30436	
744	30432	
745	30432	
746	30440	
747	30450	
748	30453	
749	30444	
750	30424	
751	30404	
752	30396	
753	30403	
754	30418	
755	30431	
756	30439	
757	30441	
758	30441	
759	30439	
760	30429	
761	30409	
762	30386	
763	30369	
764	30366	
765	30373	
766	30381	
767	30379	
768	30370	
769	30361	
770	30364	
771	30380	
772	30400	
773	30411	
774	30406	
775	30388	
776	30370	
777	30360	
778	30361	
779	30369	
780	30376	
781	30379	
782	30375	
783	30367	
784	30358	
785	30354	
786	30358	
787	30371	
788	30387	
789	30398	
790	30396	
791	30384	
792	30372	
793	30370	
794	30382	
795	30399	
796	30410	
797	30407	
798	30393	
799	30378	
800	30369	
801	30366	
802	30364	
803	30358	
804	30352	
805	30351	
806	30362	
807	30380	
808	30397	
809	30398	
810	30381	
811	30354	
812	30332	
813	30326	
814	30338	
815	30356	
816	30368	
817	30365	
818	30348	
819	30325	
820	30307	
821	30297	
822	30293	
823	30292	
824	30292	
825	30294	
826	30296	
827	30299	
828	30300	
829	30299	
830	30299	
831	30299	
832	30301	
833	30303	
834	30302	
835	30297	
836	30286	
837	30273	
838	30259	
839	30247	
840	30238	
841	30227	
842	30211	
843	30190	
844	30168	
845	30154	
846	30154	
847	30168	
848	30187	
849	30197	
850	30188	
851	30164	
852	30139	
853	30125	
854	30129	
855	30144	
856	30154	
857	30150	
858	30130	
859	30105	
860	30086	
861	30083	
862	30093	
863	30108	
864	30117	
865	30118	
866	30111	
867	30105	
868	30107	
869	30119	
870	30136	
871	30152	
872	30165	
873	30174	
874	30182	
875	30192	
876	30200	
877	30205	
878	30209	
879	30221	
880	30248	
881	30290	
882	30334	
883	30363	
884	30367	
885	30353	
886	30340	
887	30348	
888	30382	
889	30432	
890	30479	
891	30507	
892	30519	
893	30527	
894	30546	
895	30581	
896	30620	
897	30652	
898	30672	
899	30688	
900	30713	
901	30754	
902	30806	
903	30853	
904	30881	
905	30890	
906	30893	
907	30906	
908	30941	
909	30988	
910	31031	
911	31053	
912	31053	
913	31047	
914	31058	
915	31097	
916	31157	
917	31217	
918	31255	
919	31269	
920	31273	
921	31285	
922	31315	
923	31352	
924	31379	
925	31381	
926	31362	
927	31339	
928	31329	
929	31336	
930	31347	
931	31345	
932	31328	
933	31307	
934	31305	
935	31331	
936	31374	
937	31408	
938	31415	
939	31397	
940	31377	
941	31376	
942	31398	
943	31426	
944	31438	
945	31421	
946	31388	
947	31367	
948	31376	
949	31412	
950	31450	
951	31463	
952	31444	
953	31413	
954	31397	
955	31415	
956	31461	
957	31511	
958	31543	
959	31553	
960	31559	
961	31576	
962	31608	
963	31637	
964	31640	
965	31606	
966	31550	
967	31502	
968	31487	
969	31508	
970	31546	
971	31574	
972	31577	
973	31559	
974	31535	
975	31523	
976	31527	
977	31540	
978	31545	
979	31531	
980	31502	
981	31468	
982	31446	
983	31446	
984	31467	
985	31499	
986	31531	
987	31553	
988	31563	
989	31565	
990	31565	
991	31569	
992	31577	
993	31584	
994	31589	
995	31591	
996	31594	
997	31602	
998	31615	
999	31628	
1000	31633	
1001	31628	
1002	31619	
1003	31615	
1004	31622	
1005	31635	
1006	31645	
1007	31642	
1008	31627	
1009	31612	
1010	31608	
1011	31619	
1012	31639	
1013	31654	
1014	31656	
1015	31647	
1016	31636	
1017	31634	
1018	31643	
1019	31657	
1020	31665	
1021	31660	
1022	31642	
1023	31621	
1024	31609	
1025	31615	
1026	31639	
1027	31675	
1028	31710	
1029	31733	
1030	31741	
1031	31734	
1032	31718	
1033	31700	
1034	31684	
1035	31672	
1036	31663	
1037	31656	
1038	31651	
1039	31648	
1040	31647	
1041	31649	
1042	31652	
1043	31657	
1044	31662	
1045	31665	
1046	31663	
1047	31658	
1048	31653	
1049	31651	
1050	31658	
1051	31672	
1052	31690	
1053	31707	
1054	31717	
1055	31719	
1056	31716	
1057	31711	
1058	31709	
1059	31707	
1060	31701	
1061	31686	
1062	31669	
1063	31659	
1064	31668	
1065	31700	
1066	31744	
1067	31782	
1068	31795	
1069	31777	
1070	31739	
1071	31703	
1072	31690	
1073	31705	
1074	31736	
1075	31761	
1076	31761	
1077	31732	
1078	31691	
1079	31660	
1080	31657	
1081	31682	
1082	31720	
1083	31751	
1084	31765	
1085	31769	
1086	31774	
1087	31788	
1088	31808	
1089	31821	
1090	31816	
1091	31796	
1092	31774	
1093	31771	
1094	31792	
1095	31828	
1096	31860	
1097	31869	
1098	31855	
1099	31833	
1100	31827	
1101	31854	
1102	31912	
1103	31983	
1104	32049	
1105	32098	
1106	32135	
1107	32171	
1108	32216	
1109	32270	
1110	32321	
1111	32352	
1112	32355	
1113	32331	
1114	32295	
1115	32268	
1116	32259	
1117	32268	
1118	32280	
1119	32276	
1120	32248	
1121	32202	
1122	32155	
1123	32127	
1124	32124	
1125	32135	
1126	32143	
1127	32131	
1128	32100	
1129	32062	
1130	32032	
1131	32021	
1132	32023	
1133	32028	
1134	32027	
1135	32018	
1136	32009	
1137	32007	
1138	32010	
1139	32012	
1140	32002	
1141	31978	
1142	31947	
1143	31919	
1144	31902	
1145	31895	
1146	31891	
1147	31883	
1148	31868	
1149	31850	
1150	31835	
1151	31828	
1152	31828	
1153	31828	
1154	31824	
1155	31818	
1156	31817	
1157	31829	
1158	31853	
1159	31879	
1160	31889	
1161	31875	
1162	31837	
1163	31792	
1164	31760	
1165	31752	
1166	31763	
1167	31778	
1168	31784	
1169	31776	
1170	31762	
1171	31755	
1172	31761	
1173	31778	
1174	31797	
1175	31808	
1176	31807	
1177	31797	
1178	31785	
1179	31776	
1180	31772	
1181	31770	
1182	31766	
1183	31760	
1184	31754	
1185	31750	
1186	31750	
1187	31750	
1188	31747	
1189	31738	
1190	31724	
1191	31710	
1192	31702	
1193	31705	
1194	31717	
1195	31735	
1196	31753	
1197	31768	
1198	31778	
1199	31782	
1200	31780	
1201	31775	
1202	31768	
1203	31767	
1204	31774	
1205	31790	
1206	31807	
1207	31816	
1208	31808	
1209	31786	
1210	31759	
1211	31739	
1212	31729	
1213	31723	
1214	31704	
1215	31659	
1216	31583	
1217	31485	
1218	31386	
1219	31310	
1220	31277	
1221	31300	
1222	31388	
1223	31542	
1224	31762	
1225	32047	
1226	32404	
1227	32853	
1228	33426	
1229	34158	
1230	35064	
1231	36120	
1232	37253	
1233	38352	
1234	39304	
1235	40032	
1236	40523	
1237	40830	
1238	41041	
1239	41239	
1240	41472	
1241	41742	
1242	42028	
1243	42307	
1244	42573	
1245	42831	
1246	43075	
1247	43277	
1248	43388	
1249	43369	
1250	43213	
1251	42950	
1252	42628	
1253	42285	
1254	41931	
1255	41551	
1256	41124	
1257	40642	
1258	40119	
1259	39588	
1260	39077	
1261	38596	
1262	38133	
1263	37657	
1264	37146	
1265	36602	
1266	36059	
1267	35568	
1268	35173	
1269	34887	
1270	34685	
1271	34524	
1272	34365	
1273	34190	
1274	33997	
1275	33782	
1276	33526	
1277	33206	
1278	32833	
1279	32463	
1280	32181	
1281	32043	
1282	32036	
1283	32073	
1284	32055	
1285	31936	
1286	31757	
1287	31614	
1288	31581	
1289	31657	
1290	31764	
1291	31811	
1292	31762	
1293	31659	
1294	31584	
1295	31590	
1296	31664	
1297	31737	
1298	31743	
1299	31671	
1300	31568	
1301	31504	
1302	31513	
1303	31573	
1304	31626	
1305	31627	
1306	31576	
1307	31517	
1308	31499	
1309	31539	
1310	31608	
1311	31658	
1312	31659	
1313	31618	
1314	31576	
1315	31569	
1316	31604	
1317	31654	
1318	31677	
1319	31650	
1320	31587	
1321	31528	
1322	31507	
1323	31533	
1324	31582	
1325	31619	
1326	31621	
1327	31598	
1328	31579	
1329	31588	
1330	31627	
1331	31673	
1332	31694	
1333	31674	
1334	31623	
1335	31571	
1336	31547	
1337	31559	
1338	31593	
1339	31624	
1340	31635	
1341	31626	
1342	31611	
1343	31608	
1344	31622	
1345	31646	
1346	31667	
1347	31675	
1348	31668	
1349	31655	
1350	31642	
1351	31633	
1352	31627	
1353	31622	
1354	31614	
1355	31605	
1356	31591	
1357	31575	
1358	31558	
1359	31545	
1360	31543	
1361	31556	
1362	31581	
1363	31607	
1364	31623	
1365	31623	
1366	31611	
1367	31597	
1368	31589	
1369	31591	
1370	31596	
1371	31598	
1372	31592	
1373	31585	
1374	31585	
1375	31598	
1376	31620	
1377	31638	
1378	31640	
1379	31622	
1380	31595	
1381	31576	
1382	31577	
1383	31595	
1384	31614	
1385	31618	
1386	31601	
1387	31575	
1388	31557	
1389	31559	
1390	31581	
1391	31610	
1392	31633	
1393	31643	
1394	31642	
1395	31637	
1396	31634	
1397	31633	
1398	31635	
1399	31640	
1400	31650	
1401	31665	
1402	31681	
1403	31690	
1404	31690	
1405	31684	
1406	31681	
1407	31689	
1408	31707	
1409	31727	
1410	31733	
1411	31720	
1412	31689	
1413	31656	
1414	31638	
1415	31644	
1416	31671	
1417	31704	
1418	31729	
1419	31735	
1420	31725	
1421	31712	
1422	31705	
1423	31707	
1424	31712	
1425	31713	
1426	31707	
1427	31697	
1428	31691	
1429	31694	
1430	31702	
1431	31709	
1432	31705	
1433	31693	
1434	31678	
1435	31671	
1436	31674	
1437	31683	
1438	31689	
1439	31686	
1440	31676	
1441	31669	
1442	31674	
1443	31692	
1444	31710	
1445	31715	
1446	31700	
1447	31670	
1448	31643	
1449	31634	
1450	31650	
1451	31682	
1452	31714	
1453	31734	
1454	31736	
1455	31726	
1456	31712	
1457	31700	
1458	31693	
1459	31688	
1460	31682	
1461	31674	
1462	31664	
1463	31653	
1464	31643	
1465	31637	
1466	31637	
1467	31644	
1468	31654	
1469	31662	
1470	31666	
1471	31664	
1472	31659	
1473	31656	
1474	31659	
1475	31669	
1476	31679	
1477	31683	
1478	31676	
1479	31661	
1480	31644	
1481	31636	
1482	31645	
1483	31668	
1484	31695	
1485	31712	
1486	31709	
1487	31683	
1488	31644	
1489	31606	
1490	31581	
1491	31572	
1492	31578	
1493	31591	
1494	31604	
1495	31615	
1496	31623	
1497	31630	
1498	31637	
1499	31644	
1500	31650	
1501	31651	
1502	31646	
1503	31635	
1504	31624	
1505	31619	
1506	31624	
1507	31638	
1508	31657	
1509	31673	
1510	31682	
1511	31684	
1512	31682	
1513	31684	
1514	31696	
1515	31718	
1516	31748	
1517	31776	
1518	31795	
1519	31805	
1520	31811	
1521	31824	
1522	31851	
1523	31893	
1524	31937	
1525	31973	
1526	31993	
1527	32000	
1528	32004	
1529	32016	
1530	32039	
1531	32068	
1532	32095	
1533	32118	
1534	32137	
1535	32157	
1536	32181	
1537	32208	
1538	32237	
1539	32264	
1540	32289	
1541	32310	
1542	32327	
1543	32337	
1544	32344	
1545	32351	
1546	32365	
1547	32390	
1548	32422	
1549	32450	
1550	32464	
1551	32462	
1552	32449	
1553	32442	
1554	32452	
1555	32484	
1556	32530	
1557	32574	
1558	32603	
1559	32610	
1560	32596	
1561	32571	
1562	32547	
1563	32531	
1564	32528	
1565	32536	
1566	32553	
1567	32571	
1568	32583	
1569	32587	
1570	32583	
1571	32577	
1572	32576	
1573	32586	
1574	32609	
1575	32638	
1576	32663	
1577	32675	
1578	32671	
1579	32655	
1580	32634	
1581	32618	
1582	32612	
1583	32615	
1584	32626	
1585	32640	
1586	32653	
1587	32661	
1588	32663	
1589	32660	
1590	32657	
1591	32657	
1592	32661	
1593	32668	
1594	32676	
1595	32680	
1596	32680	
1597	32679	
1598	32683	
1599	32694	
1600	32710	
1601	32723	
1602	32726	
1603	32716	
1604	32694	
1605	32671	
1606	32658	
1607	32659	
1608	32674	
1609	32696	
1610	32717	
1611	32731	
1612	32738	
1613	32741	
1614	32743	
1615	32742	
1616	32737	
1617	32724	
1618	32705	
1619	32685	
1620	32673	
1621	32674	
1622	32688	
1623	32710	
1624	32729	
1625	32738	
1626	32732	
1627	32715	
1628	32692	
1629	32672	
1630	32662	
1631	32663	
1632	32673	
1633	32688	
1634	32703	
1635	32714	
1636	32718	
1637	32717	
1638	32716	
1639	32719	
1640	32730	
1641	32747	
1642	32766	
1643	32780	
1644	32780	
1645	32766	
1646	32742	
1647	32715	
1648	32697	
1649	32692	
1650	32701	
1651	32718	
1652	32735	
1653	32745	
1654	32748	
1655	32747	
1656	32748	
1657	32755	
1658	32764	
1659	32771	
1660	32772	
1661	32765	
1662	32756	
1663	32751	
1664	32754	
1665	32764	
1666	32773	
1667	32775	
1668	32767	
1669	32752	
1670	32736	
1671	32727	
1672	32727	
1673	32734	
1674	32741	
1675	32747	
1676	32748	
1677	32750	
1678	32753	
1679	32758	
1680	32761	
1681	32762	
1682	32760	
1683	32759	
1684	32762	
1685	32773	
1686	32785	
1687	32794	
1688	32793	
1689	32783	
1690	32767	
1691	32755	
1692	32753	
1693	32759	
1694	32770	
1695	32778	
1696	32780	
1697	32778	
1698	32776	
1699	32776	
1700	32780	
1701	32785	
1702	32787	
1703	32786	
1704	32782	
1705	32779	
1706	32778	
1707	32777	
1708	32773	
1709	32766	
1710	32757	
1711	32751	
1712	32754	
1713	32766	
1714	32783	
1715	32798	
1716	32806	
1717	32806	
1718	32801	
1719	32796	
1720	32793	
1721	32794	
1722	32797	
1723	32804	
1724	32815	
1725	32835	
1726	32863	
1727	32895	
1728	32923	
1729	32939	
1730	32942	
1731	32936	
1732	32934	
1733	32947	
1734	32980	
1735	33035	
1736	33103	
1737	33178	
1738	33253	
1739	33322	
1740	33377	
1741	33413	
1742	33421	
1743	33404	
1744	33368	
1745	33331	
1746	33308	
1747	33307	
1748	33323	
1749	33339	
1750	33340	
1751	33318	
1752	33279	
1753	33241	
1754	33220	
1755	33222	
1756	33237	
1757	33248	
1758	33239	
1759	33204	
1760	33156	
1761	33113	
1762	33090	
1763	33093	
1764	33109	
1765	33124	
1766	33123	
1767	33103	
1768	33072	
1769	33039	
1770	33014	
1771	32999	
1772	32990	
1773	32982	
1774	32972	
1775	32962	
1776	32954	
1777	32949	
1778	32946	
1779	32941	
1780	32932	
1781	32918	
1782	32903	
1783	32891	
1784	32887	
1785	32891	
1786	32899	
1787	32906	
1788	32911	
1789	32909	
1790	32904	
1791	32894	
1792	32880	
1793	32860	
1794	32836	
1795	32810	
1796	32789	
1797	32779	
1798	32783	
1799	32797	
1800	32814	
1801	32826	
1802	32829	
1803	32825	
1804	32821	
1805	32821	
1806	32826	
1807	32832	
1808	32831	
1809	32822	
1810	32809	
1811	32798	
1812	32796	
1813	32807	
1814	32825	
1815	32844	
1816	32858	
1817	32866	
1818	32871	
1819	32876	
1820	32882	
1821	32889	
1822	32894	
1823	32895	
1824	32894	
1825	32894	
1826	32896	
1827	32901	
1828	32905	
1829	32906	
1830	32904	
1831	32902	
1832	32902	
1833	32906	
1834	32911	
1835	32912	
1836	32905	
1837	32890	
1838	32871	
1839	32855	
1840	32846	
1841	32842	
1842	32840	
1843	32831	
1844	32809	
1845	32772	
1846	32716	
1847	32642	
1848	32551	
1849	32452	
1850	32361	
1851	32303	
1852	32302	
1853	32380	
1854	32543	
1855	32784	
1856	33096	
1857	33483	
1858	33968	
1859	34591	
1860	35389	
1861	36368	
1862	37484	
1863	38649	
1864	39747	
1865	40676	
1866	41383	
1867	41875	
1868	42211	
1869	42469	
1870	42715	
1871	42983	
1872	43277	
1873	43587	
1874	43899	
1875	44202	
1876	44484	
1877	44719	
1878	44875	
1879	44924	
1880	44857	
1881	44687	
1882	44442	
1883	44146	
1884	43816	
1885	43450	
1886	43037	
1887	42563	
1888	42031	
1889	41461	
1890	40892	
1891	40358	
1892	39863	
1893	39380	
1894	38864	
1895	38296	
1896	37699	
1897	37135	
1898	36671	
1899	36335	
1900	36101	
1901	35914	
1902	35725	
1903	35522	
1904	35319	
1905	35125	
1906	34908	
1907	34618	
1908	34227	
1909	33777	
1910	33371	
1911	33118	
1912	33050	
1913	33099	
1914	33134	
1915	33056	
1916	32861	
1917	32644	
1918	32521	
1919	32549	
1920	32680	
1921	32803	
1922	32826	
1923	32741	
1924	32621	
1925	32559	
1926	32597	
1927	32695	
1928	32768	
1929	32753	
1930	32654	
1931	32535	
1932	32468	
1933	32477	
1934	32532	
1935	32575	
1936	32571	
1937	32532	
1938	32501	
1939	32514	
1940	32567	
1941	32622	
1942	32637	
1943	32599	
1944	32532	
1945	32479	
1946	32464	
1947	32483	
1948	32504	
1949	32501	
1950	32470	
1951	32433	
1952	32416	
1953	32430	
1954	32463	
1955	32488	
1956	32487	
1957	32462	
1958	32435	
1959	32425	
1960	32440	
1961	32469	
1962	32491	
1963	32497	
1964	32490	
1965	32482	
1966	32483	
1967	32491	
1968	32498	
1969	32494	
1970	32476	
1971	32453	
1972	32436	
1973	32433	
1974	32443	
1975	32458	
1976	32470	
1977	32477	
1978	32478	
1979	32476	
1980	32468	
1981	32453	
1982	32431	
1983	32407	
1984	32387	
1985	32378	
1986	32382	
1987	32395	
1988	32411	
1989	32429	
1990	32447	
1991	32464	
1992	32480	
1993	32491	
1994	32496	
1995	32497	
1996	32502	
1997	32517	
1998	32541	
1999	32565	
2000	32578	
2001	32570	
2002	32547	
2003	32520	
2004	32507	
2005	32516	
2006	32542	
2007	32572	
2008	32591	
2009	32594	
2010	32585	
2011	32576	
2012	32573	
2013	32575	
2014	32575	
2015	32568	
2016	32554	
2017	32542	
2018	32539	
2019	32546	
2020	32557	
2021	32563	
2022	32558	
2023	32545	
2024	32534	
2025	32533	
2026	32543	
2027	32560	
2028	32575	
2029	32583	
2030	32583	
2031	32580	
2032	32578	
2033	32578	
2034	32579	
2035	32579	
2036	32580	
2037	32585	
2038	32593	
2039	32601	
2040	32605	
2041	32598	
2042	32584	
2043	32568	
2044	32559	
2045	32562	
2046	32574	
2047	32587	
2048	32592	
2049	32584	
2050	32567	
2051	32549	
2052	32537	
2053	32535	
2054	32541	
2055	32551	
2056	32562	
2057	32572	
2058	32576	
2059	32574	
2060	32564	
2061	32546	
2062	32526	
2063	32509	
2064	32502	
2065	32505	
2066	32515	
2067	32524	
2068	32528	
2069	32525	
2070	32519	
2071	32516	
2072	32518	
2073	32523	
2074	32528	
2075	32529	
2076	32527	
2077	32522	
2078	32517	
2079	32510	
2080	32499	
2081	32485	
2082	32469	
2083	32457	
2084	32450	
2085	32449	
2086	32449	
2087	32445	
2088	32435	
2089	32424	
2090	32419	
2091	32423	
2092	32435	
2093	32446	
2094	32449	
2095	32442	
2096	32430	
2097	32424	
2098	32430	
2099	32445	
2100	32457	
2101	32455	
2102	32431	
2103	32394	
2104	32359	
2105	32340	
2106	32343	
2107	32362	
2108	32382	
2109	32388	
2110	32377	
2111	32354	
2112	32330	
2113	32314	
2114	32307	
2115	32304	
2116	32297	
2117	32282	
2118	32263	
2119	32247	
2120	32241	
2121	32248	
2122	32264	
2123	32278	
2124	32281	
2125	32269	
2126	32247	
2127	32224	
2128	32211	
2129	32217	
2130	32239	
2131	32268	
2132	32294	
2133	32305	
2134	32299	
2135	32280	
2136	32254	
2137	32234	
2138	32226	
2139	32235	
2140	32263	
2141	32302	
2142	32343	
2143	32374	
2144	32386	
2145	32378	
2146	32356	
2147	32332	
2148	32320	
2149	32332	
2150	32367	
2151	32419	
2152	32473	
2153	32518	
2154	32547	
2155	32565	
2156	32583	
2157	32607	
2158	32641	
2159	32675	
2160	32701	
2161	32712	
2162	32711	
2163	32708	
2164	32714	
2165	32735	
2166	32764	
2167	32791	
2168	32808	
2169	32813	
2170	32815	
2171	32823	
2172	32847	
2173	32884	
2174	32927	
2175	32963	
2176	32983	
2177	32987	
2178	32979	
2179	32971	
2180	32973	
2181	32988	
2182	33016	
2183	33049	
2184	33081	
2185	33106	
2186	33124	
2187	33137	
2188	33146	
2189	33154	
2190	33159	
2191	33166	
2192	33178	
2193	33199	
2194	33229	
2195	33261	
2196	33286	
2197	33296	
2198	33291	
2199	33277	
2200	33266	
2201	33266	
2202	33278	
2203	33297	
2204	33315	
2205	33326	
2206	33333	
2207	33339	
2208	33350	
2209	33363	
2210	33373	
2211	33375	
2212	33371	
2213	33365	
2214	33365	
2215	33373	
2216	33379	
2217	33375	
2218	33356	
2219	33327	
2220	33302	
2221	33291	
2222	33294	
2223	33299	
2224	33294	
2225	33270	
2226	33235	
2227	33200	
2228	33182	
2229	33187	
2230	33211	
2231	33248	
2232	33289	
2233	33328	
2234	33359	
2235	33374	
2236	33369	
2237	33343	
2238	33303	
2239	33264	
2240	33242	
2241	33242	
2242	33259	
2243	33279	
2244	33286	
2245	33276	
2246	33255	
2247	33237	
2248	33233	
2249	33243	
2250	33261	
2251	33277	
2252	33286	
2253	33292	
2254	33304	
2255	33327	
2256	33356	
2257	33377	
2258	33377	
2259	33349	
2260	33306	
2261	33267	
2262	33251	
2263	33267	
2264	33305	
2265	33344	
2266	33364	
2267	33356	
2268	33326	
2269	33295	
2270	33279	
2271	33289	
2272	33316	
2273	33345	
2274	33359	
2275	33348	
2276	33318	
2277	33281	
2278	33255	
2279	33249	
2280	33263	
2281	33285	
2282	33301	
2283	33301	
2284	33286	
2285	33267	
2286	33256	
2287	33259	
2288	33275	
2289	33293	
2290	33302	
2291	33297	
2292	33283	
2293	33271	
2294	33271	
2295	33286	
2296	33310	
2297	33330	
2298	33337	
2299	33326	
2300	33303	
2301	33280	
2302	33269	
2303	33276	
2304	33297	
2305	33323	
2306	33344	
2307	33354	
2308	33352	
2309	33342	
2310	33329	
2311	33316	
2312	33306	
2313	33298	
2314	33289	
2315	33281	
2316	33273	
2317	33268	
2318	33266	
2319	33265	
2320	33264	
2321	33257	
2322	33247	
2323	33239	
2324	33238	
2325	33246	
2326	33259	
2327	33270	
2328	33270	
2329	33260	
2330	33244	
2331	33231	
2332	33225	
2333	33224	
2334	33222	
2335	33218	
2336	33215	
2337	33217	
2338	33229	
2339	33247	
2340	33264	
2341	33269	
2342	33261	
2343	33249	
2344	33246	
2345	33260	
2346	33292	
2347	33329	
2348	33358	
2349	33368	
2350	33358	
2351	33338	
2352	33318	
2353	33309	
2354	33312	
2355	33327	
2356	33350	
2357	33379	
2358	33413	
2359	33450	
2360	33486	
2361	33516	
2362	33542	
2363	33569	
2364	33606	
2365	33654	
2366	33708	
2367	33756	
2368	33781	
2369	33780	
2370	33760	
2371	33735	
2372	33720	
2373	33722	
2374	33733	
2375	33738	
2376	33725	
2377	33690	
2378	33643	
2379	33599	
2380	33568	
2381	33554	
2382	33550	
2383	33544	
2384	33530	
2385	33508	
2386	33484	
2387	33465	
2388	33454	
2389	33448	
2390	33440	
2391	33422	
2392	33392	
2393	33354	
2394	33318	
2395	33291	
2396	33277	
2397	33272	
2398	33269	
2399	33263	
2400	33253	
2401	33244	
2402	33242	
2403	33245	
2404	33249	
2405	33243	
2406	33224	
2407	33193	
2408	33156	
2409	33123	
2410	33099	
2411	33083	
2412	33075	
2413	33070	
2414	33070	
2415	33070	
2416	33068	
2417	33059	
2418	33040	
2419	33012	
2420	32983	
2421	32963	
2422	32959	
2423	32969	
2424	32983	
2425	32990	
2426	32982	
2427	32962	
2428	32938	
2429	32921	
2430	32915	
2431	32922	
2432	32933	
2433	32942	
2434	32945	
2435	32942	
2436	32936	
2437	32931	
2438	32928	
2439	32925	
2440	32921	
2441	32915	
2442	32906	
2443	32899	
2444	32895	
2445	32896	
2446	32901	
2447	32907	
2448	32909	
2449	32905	
2450	32895	
2451	32880	
2452	32869	
2453	32865	
2454	32870	
2455	32879	
2456	32887	
2457	32891	
2458	32889	
2459	32888	
2460	32891	
2461	32897	
2462	32899	
2463	32890	
2464	32867	
2465	32837	
2466	32811	
2467	32800	
2468	32804	
2469	32814	
2470	32814	
2471	32792	
2472	32746	
2473	32682	
2474	32610	
2475	32535	
2476	32462	
2477	32395	
2478	32346	
2479	32336	
2480	32386	
2481	32507	
2482	32697	
2483	32943	
2484	33236	
2485	33592	
2486	34053	
2487	34677	
2488	35505	
2489	36536	
2490	37703	
2491	38891	
2492	39967	
2493	40826	
2494	41430	
2495	41806	
2496	42032	
2497	42193	
2498	42350	
2499	42527	
2500	42717	
2501	42907	
2502	43090	
2503	43266	
2504	43439	
2505	43596	
2506	43702	
2507	43707	
2508	43578	
2509	43317	
2510	42967	
2511	42586	
2512	42206	
2513	41819	
2514	41382	
2515	40866	
2516	40284	
2517	39692	
2518	39153	
2519	38690	
2520	38275	
2521	37851	
2522	37375	
2523	36851	
2524	36324	
2525	35855	
2526	35485	
2527	35223	
2528	35051	
2529	34946	
2530	34878	
2531	34814	
2532	34712	
2533	34533	
2534	34259	
2535	33906	
2536	33526	
2537	33182	
2538	32926	
2539	32775	
2540	32713	
2541	32697	
2542	32683	
2543	32643	
2544	32573	
2545	32495	
2546	32441	
2547	32433	
2548	32469	
2549	32519	
2550	32548	
2551	32536	
2552	32494	
2553	32457	
2554	32453	
2555	32484	
2556	32519	
2557	32519	
2558	32466	
2559	32382	
2560	32315	
2561	32304	
2562	32351	
2563	32419	
2564	32458	
2565	32444	
2566	32391	
2567	32341	
2568	32328	
2569	32352	
2570	32382	
2571	32382	
2572	32342	
2573	32285	
2574	32254	
2575	32271	
2576	32324	
2577	32374	
2578	32383	
2579	32341	
2580	32277	
2581	32232	
2582	32236	
2583	32282	
2584	32341	
2585	32376	
2586	32374	
2587	32349	
2588	32328	
2589	32331	
2590	32359	
2591	32396	
2592	32422	
2593	32428	
2594	32420	
2595	32407	
2596	32396	
2597	32383	
2598	32366	
2599	32345	
2600	32331	
2601	32333	
2602	32355	
2603	32386	
2604	32412	
2605	32421	
2606	32414	
2607	32403	
2608	32399	
2609	32407	
2610	32420	
2611	32429	
2612	32427	
2613	32418	
2614	32411	
2615	32410	
2616	32416	
2617	32422	
2618	32424	
2619	32422	
2620	32421	
2621	32429	
2622	32444	
2623	32459	
2624	32466	
2625	32459	
2626	32442	
2627	32425	
2628	32414	
2629	32408	
2630	32400	
2631	32385	
2632	32362	
2633	32339	
2634	32329	
2635	32338	
2636	32361	
2637	32386	
2638	32402	
2639	32406	
2640	32403	
2641	32404	
2642	32411	
2643	32420	
2644	32421	
2645	32407	
2646	32382	
2647	32359	
2648	32348	
2649	32351	
2650	32359	
2651	32362	
2652	32352	
2653	32334	
2654	32320	
2655	32319	
2656	32329	
2657	32341	
2658	32344	
2659	32336	
2660	32325	
2661	32323	
2662	32334	
2663	32352	
2664	32363	
2665	32358	
2666	32336	
2667	32311	
2668	32298	
2669	32304	
2670	32322	
2671	32339	
2672	32343	
2673	32335	
2674	32324	
2675	32322	
2676	32332	
2677	32346	
2678	32349	
2679	32333	
2680	32302	
2681	32272	
2682	32260	
2683	32274	
2684	32306	
2685	32338	
2686	32353	
2687	32346	
2688	32324	
2689	32303	
2690	32293	
2691	32294	
2692	32299	
2693	32300	
2694	32295	
2695	32285	
2696	32275	
2697	32267	
2698	32260	
2699	32251	
2700	32243	
2701	32238	
2702	32238	
2703	32240	
2704	32239	
2705	32226	
2706	32201	
2707	32172	
2708	32151	
2709	32146	
2710	32157	
2711	32174	
2712	32183	
2713	32180	
2714	32168	
2715	32158	
2716	32159	
2717	32174	
2718	32192	
2719	32205	
2720	32206	
2721	32199	
2722	32195	
2723	32199	
2724	32213	
2725	32226	
2726	32230	
2727	32219	
2728	32198	
2729	32176	
2730	32159	
2731	32151	
2732	32145	
2733	32136	
2734	32124	
2735	32112	
2736	32107	
2737	32110	
2738	32117	
2739	32118	
2740	32105	
2741	32078	
2742	32047	
2743	32025	
2744	32023	
2745	32040	
2746	32063	
2747	32077	
2748	32072	
2749	32053	
2750	32029	
2751	32015	
2752	32015	
2753	32023	
2754	32030	
2755	32025	
2756	32010	
2757	31991	
2758	31978	
2759	31974	
2760	31978	
2761	31985	
2762	31992	
2763	31998	
2764	32008	
2765	32025	
2766	32044	
2767	32059	
2768	32060	
2769	32046	
2770	32026	
2771	32015	
2772	32025	
2773	32060	
2774	32107	
2775	32149	
2776	32169	
2777	32162	
2778	32139	
2779	32121	
2780	32127	
2781	32160	
2782	32211	
2783	32259	
2784	32289	
2785	32298	
2786	32294	
2787	32295	
2788	32312	
2789	32346	
2790	32391	
2791	32434	
2792	32468	
2793	32494	
2794	32515	
2795	32537	
2796	32560	
2797	32581	
2798	32596	
2799	32606	
2800	32615	
2801	32631	
2802	32656	
2803	32688	
2804	32719	
2805	32740	
2806	32749	
2807	32748	
2808	32746	
2809	32752	
2810	32766	
2811	32786	
2812	32805	
2813	32816	
2814	32820	
2815	32822	
2816	32828	
2817	32841	
2818	32855	
2819	32863	
2820	32856	
2821	32832	
2822	32801	
2823	32774	
2824	32764	
2825	32773	
2826	32796	
2827	32819	
2828	32832	
2829	32830	
2830	32818	
2831	32806	
2832	32805	
2833	32819	
2834	32842	
2835	32864	
2836	32877	
2837	32877	
2838	32869	
2839	32861	
2840	32860	
2841	32869	
2842	32882	
2843	32891	
2844	32887	
2845	32869	
2846	32843	
2847	32819	
2848	32803	
2849	32800	
2850	32809	
2851	32827	
2852	32849	
2853	32872	
2854	32893	
2855	32907	
2856	32910	
2857	32900	
2858	32879	
2859	32854	
2860	32835	
2861	32826	
2862	32827	
2863	32831	
2864	32834	
2865	32833	
2866	32834	
2867	32843	
2868	32862	
2869	32883	
2870	32895	
2871	32890	
2872	32868	
2873	32843	
2874	32830	
2875	32836	
2876	32855	
2877	32871	
2878	32868	
2879	32842	
2880	32808	
2881	32785	
2882	32789	
2883	32819	
2884	32859	
2885	32887	
2886	32890	
2887	32872	
2888	32849	
2889	32841	
2890	32857	
2891	32889	
2892	32918	
2893	32929	
2894	32917	
2895	32890	
2896	32864	
2897	32853	
2898	32860	
2899	32876	
2900	32890	
2901	32890	
2902	32876	
2903	32855	
2904	32838	
2905	32832	
2906	32840	
2907	32858	
2908	32879	
2909	32897	
2910	32908	
2911	32914	
2912	32918	
2913	32922	
2914	32926	
2915	32926	
2916	32922	
2917	32913	
2918	32903	
2919	32900	
2920	32908	
2921	32923	
2922	32937	
2923	32939	
2924	32924	
2925	32898	
2926	32874	
2927	32865	
2928	32879	
2929	32908	
2930	32938	
2931	32952	
2932	32946	
2933	32922	
2934	32894	
2935	32872	
2936	32858	
2937	32846	
2938	32831	
2939	32812	
2940	32796	
2941	32793	
2942	32808	
2943	32835	
2944	32861	
2945	32875	
2946	32870	
2947	32853	
2948	32834	
2949	32823	
2950	32821	
2951	32824	
2952	32826	
2953	32826	
2954	32825	
2955	32826	
2956	32828	
2957	32825	
2958	32812	
2959	32789	
2960	32765	
2961	32752	
2962	32757	
2963	32778	
2964	32801	
2965	32812	
2966	32807	
2967	32789	
2968	32770	
2969	32762	
2970	32766	
2971	32776	
2972	32781	
2973	32777	
2974	32767	
2975	32759	
2976	32760	
2977	32765	
2978	32768	
2979	32761	
2980	32746	
2981	32731	
2982	32727	
2983	32738	
2984	32758	
2985	32773	
2986	32774	
2987	32764	
2988	32756	
2989	32765	
2990	32797	
2991	32846	
2992	32898	
2993	32943	
2994	32983	
2995	33029	
2996	33091	
2997	33165	
2998	33232	
2999	33270	
3000	33263	
3001	33220	
3002	33165	
3003	33129	
3004	33126	
3005	33149	
3006	33175	
3007	33178	
3008	33150	
3009	33103	
3010	33058	
3011	33033	
3012	33030	
3013	33034	
3014	33026	
3015	32994	
3016	32943	
3017	32884	
3018	32832	
3019	32792	
3020	32762	
3021	32735	
3022	32706	
3023	32677	
3024	32653	
3025	32636	
3026	32627	
3027	32620	
3028	32611	
3029	32597	
3030	32580	
3031	32562	
3032	32546	
3033	32530	
3034	32515	
3035	32501	
3036	32489	
3037	32480	
3038	32472	
3039	32463	
3040	32446	
3041	32420	
3042	32389	
3043	32362	
3044	32347	
3045	32347	
3046	32355	
3047	32364	
3048	32365	
3049	32355	
3050	32340	
3051	32327	
3052	32322	
3053	32324	
3054	32327	
3055	32324	
3056	32312	
3057	32292	
3058	32268	
3059	32245	
3060	32229	
3061	32221	
3062	32223	
3063	32233	
3064	32249	
3065	32265	
3066	32275	
3067	32275	
3068	32263	
3069	32244	
3070	32222	
3071	32204	
3072	32193	
3073	32188	
3074	32187	
3075	32187	
3076	32188	
3077	32187	
3078	32186	
3079	32184	
3080	32184	
3081	32186	
3082	32195	
3083	32208	
3084	32224	
3085	32235	
3086	32238	
3087	32232	
3088	32224	
3089	32221	
3090	32225	
3091	32236	
3092	32244	
3093	32244	
3094	32236	
3095	32226	
3096	32220	
3097	32220	
3098	32220	
3099	32211	
3100	32184	
3101	32141	
3102	32086	
3103	32028	
3104	31967	
3105	31902	
3106	31831	
3107	31763	
3108	31718	
3109	31720	
3110	31788	
3111	31930	
3112	32136	
3113	32397	
3114	32713	
3115	33105	
3116	33610	
3117	34268	
3118	35099	
3119	36086	
3120	37166	
3121	38242	
3122	39209	
3123	39985	
3124	40532	
3125	40869	
3126	41056	
3127	41170	
3128	41279	
3129	41423	
3130	41617	
3131	41859	
3132	42135	
3133	42428	
3134	42711	
3135	42946	
3136	43090	
3137	43111	
3138	42998	
3139	42772	
3140	42476	
3141	42155	
3142	41830	
3143	41491	
3144	41108	
3145	40655	
3146	40134	
3147	39580	
3148	39039	
3149	38539	
3150	38077	
3151	37626	
3152	37151	
3153	36640	
3154	36111	
3155	35611	
3156	35194	
3157	34890	
3158	34691	
3159	34554	
3160	34431	
3161	34289	
3162	34116	
3163	33911	
3164	33670	
3165	33379	
3166	33043	
3167	32700	
3168	32413	
3169	32242	
3170	32193	
3171	32210	
3172	32201	
3173	32104	
3174	31935	
3175	31773	
3176	31706	
3177	31763	
3178	31888	
3179	31982	
3180	31978	
3181	31887	
3182	31784	
3183	31745	
3184	31785	
3185	31851	
3186	31870	
3187	31807	
3188	31700	
3189	31621	
3190	31622	
3191	31689	
3192	31756	
3193	31756	
3194	31677	
3195	31568	
3196	31502	
3197	31517	
3198	31588	
3199	31649	
3200	31647	
3201	31580	
3202	31498	
3203	31464	
3204	31501	
3205	31581	
3206	31647	
3207	31656	
3208	31614	
3209	31562	
3210	31544	
3211	31568	
3212	31608	
3213	31623	
3214	31596	
3215	31550	
3216	31524	
3217	31546	
3218	31601	
3219	31646	
3220	31640	
3221	31581	
3222	31508	
3223	31471	
3224	31496	
3225	31562	
3226	31621	
3227	31633	
3228	31597	
3229	31545	
3230	31519	
3231	31536	
3232	31579	
3233	31614	
3234	31615	
3235	31586	
3236	31554	
3237	31542	
3238	31551	
3239	31563	
3240	31555	
3241	31520	
3242	31477	
3243	31455	
3244	31472	
3245	31519	
3246	31569	
3247	31596	
3248	31588	
3249	31560	
3250	31536	
3251	31531	
3252	31544	
3253	31558	
3254	31556	
3255	31534	
3256	31506	
3257	31491	
3258	31499	
3259	31523	
3260	31541	
3261	31538	
3262	31513	
3263	31483	
3264	31466	
3265	31473	
3266	31497	
3267	31519	
3268	31529	
3269	31525	
3270	31519	
3271	31519	
3272	31523	
3273	31519	
3274	31498	
3275	31463	
3276	31430	
3277	31418	
3278	31432	
3279	31464	
3280	31495	
3281	31509	
3282	31501	
3283	31481	
3284	31464	
3285	31460	
3286	31471	
3287	31490	
3288	31504	
3289	31504	
3290	31485	
3291	31451	
3292	31413	
3293	31383	
3294	31372	
3295	31384	
3296	31411	
3297	31439	
3298	31453	
3299	31445	
3300	31416	
3301	31377	
3302	31341	
3303	31318	
3304	31312	
3305	31320	
3306	31337	
3307	31355	
3308	31370	
3309	31380	
3310	31384	
3311	31382	
3312	31376	
3313	31365	
3314	31348	
3315	31323	
3316	31292	
3317	31262	
3318	31242	
3319	31241	
3320	31260	
3321	31287	
3322	31308	
3323	31310	
3324	31293	
3325	31266	
3326	31243	
3327	31234	
3328	31236	
3329	31242	
3330	31242	
3331	31232	
3332	31212	
3333	31193	
3334	31181	
3335	31182	
3336	31194	
3337	31208	
3338	31214	
3339	31206	
3340	31186	
3341	31165	
3342	31153	
3343	31157	
3344	31174	
3345	31194	
3346	31205	
3347	31201	
3348	31186	
3349	31170	
3350	31162	
3351	31167	
3352	31182	
3353	31196	
3354	31198	
3355	31184	
3356	31161	
3357	31138	
3358	31124	
3359	31119	
3360	31115	
3361	31099	
3362	31070	
3363	31036	
3364	31015	
3365	31018	
3366	31043	
3367	31073	
3368	31084	
3369	31064	
3370	31022	
3371	30980	
3372	30959	
3373	30964	
3374	30980	
3375	30985	
3376	30966	
3377	30931	
3378	30897	
3379	30884	
3380	30895	
3381	30917	
3382	30932	
3383	30926	
3384	30900	
3385	30866	
3386	30836	
3387	30818	
3388	30811	
3389	30812	
3390	30819	
3391	30832	
3392	30853	
3393	30875	
3394	30889	
3395	30888	
3396	30873	
3397	30854	
3398	30848	
3399	30861	
3400	30893	
3401	30927	
3402	30952	
3403	30962	
3404	30964	
3405	30969	
3406	30984	
3407	31004	
3408	31023	
3409	31032	
3410	31032	
3411	31032	
3412	31041	
3413	31064	
3414	31099	
3415	31138	
3416	31173	
3417	31199	
3418	31217	
3419	31232	
3420	31246	
3421	31257	
3422	31263	
3423	31260	
3424	31251	
3425	31248	
3426	31262	
3427	31297	
3428	31348	
3429	31399	
3430	31434	
3431	31450	
3432	31455	
3433	31464	
3434	31488	
3435	31524	
3436	31562	
3437	31590	
3438	31604	
3439	31610	
3440	31616	
3441	31626	
3442	31635	
3443	31636	
3444	31625	
3445	31607	
3446	31591	
3447	31585	
3448	31593	
3449	31608	
3450	31625	
3451	31639	
3452	31650	
3453	31660	
3454	31670	
3455	31679	
3456	31685	
3457	31689	
3458	31691	
3459	31692	
3460	31693	
3461	31694	
3462	31697	
3463	31704	
3464	31717	
3465	31733	
3466	31743	
3467	31741	
3468	31722	
3469	31693	
3470	31666	
3471	31655	
3472	31663	
3473	31683	
3474	31699	
3475	31699	
3476	31679	
3477	31650	
3478	31625	
3479	31616	
3480	31624	
3481	31640	
3482	31654	
3483	31661	
3484	31660	
3485	31656	
3486	31649	
3487	31639	
3488	31625	
3489	31609	
3490	31598	
3491	31602	
3492	31624	
3493	31657	
3494	31686	
3495	31696	
3496	31681	
3497	31648	
3498	31610	
3499	31581	
3500	31567	
3501	31565	
3502	31566	
3503	31567	
3504	31568	
3505	31573	
3506	31584	
3507	31598	
3508	31609	
3509	31613	
3510	31608	
3511	31597	
3512	31584	
3513	31571	
3514	31556	
3515	31541	
3516	31524	
3517	31513	
3518	31512	
3519	31523	
3520	31543	
3521	31564	
3522	31578	
3523	31583	
3524	31584	
3525	31591	
3526	31607	
3527	31629	
3528	31647	
3529	31651	
3530	31639	
3531	31618	
3532	31600	
3533	31593	
3534	31596	
3535	31601	
3536	31598	
3537	31581	
3538	31555	
3539	31529	
3540	31508	
3541	31497	
3542	31493	
3543	31492	
3544	31492	
3545	31497	
3546	31508	
3547	31526	
3548	31543	
3549	31552	
3550	31549	
3551	31541	
3552	31538	
3553	31547	
3554	31564	
3555	31577	
3556	31574	
3557	31555	
3558	31532	
3559	31521	
3560	31529	
3561	31551	
3562	31568	
3563	31566	
3564	31544	
3565	31513	
3566	31490	
3567	31486	
3568	31500	
3569	31520	
3570	31534	
3571	31534	
3572	31524	
3573	31510	
3574	31502	
3575	31501	
3576	31503	
3577	31505	
3578	31506	
3579	31506	
3580	31509	
3581	31513	
3582	31515	
3583	31509	
3584	31495	
3585	31478	
3586	31466	
3587	31467	
3588	31479	
3589	31497	
3590	31511	
3591	31513	
3592	31504	
3593	31491	
3594	31484	
3595	31490	
3596	31508	
3597	31530	
3598	31544	
3599	31547	
3600	31541	
3601	31531	
3602	31525	
3603	31521	
3604	31516	
3605	31504	
3606	31491	
3607	31482	
3608	31484	
3609	31495	
3610	31505	
3611	31502	
3612	31484	
3613	31461	
3614	31448	
3615	31457	
3616	31487	
3617	31522	
3618	31544	
3619	31543	
3620	31526	
3621	31511	
3622	31518	
3623	31558	
3624	31629	
3625	31712	
3626	31789	
3627	31847	
3628	31884	
3629	31905	
3630	31920	
3631	31928	
3632	31927	
3633	31911	
3634	31880	
3635	31844	
3636	31818	
3637	31809	
3638	31814	
3639	31820	
3640	31811	
3641	31782	
3642	31740	
3643	31700	
3644	31675	
3645	31665	
3646	31658	
3647	31641	
3648	31608	
3649	31567	
3650	31533	
3651	31515	
3652	31511	
3653	31507	
3654	31490	
3655	31457	
3656	31416	
3657	31388	
3658	31385	
3659	31406	
3660	31435	
3661	31453	
3662	31449	
3663	31426	
3664	31397	
3665	31375	
3666	31361	
3667	31350	
3668	31329	
3669	31294	
3670	31253	
3671	31221	
3672	31210	
3673	31220	
3674	31239	
3675	31247	
3676	31235	
3677	31205	
3678	31174	
3679	31155	
3680	31155	
3681	31169	
3682	31181	
3683	31183	
3684	31171	
3685	31155	
3686	31144	
3687	31141	
3688	31143	
3689	31145	
3690	31139	
3691	31125	
3692	31109	
3693	31095	
3694	31091	
3695	31097	
3696	31111	
3697	31126	
3698	31136	
3699	31132	
3700	31113	
3701	31083	
3702	31050	
3703	31025	
3704	31013	
3705	31011	
3706	31011	
3707	31005	
3708	30992	
3709	30978	
3710	30970	
3711	30970	
3712	30973	
3713	30976	
3714	30976	
3715	30981	
3716	30994	
3717	31014	
3718	31030	
3719	31031	
3720	31014	
3721	30984	
3722	30955	
3723	30942	
3724	30946	
3725	30959	
3726	30965	
3727	30951	
3728	30919	
3729	30879	
3730	30847	
3731	30832	
3732	30827	
3733	30818	
3734	30787	
3735	30729	
3736	30647	
3737	30554	
3738	30464	
3739	30389	
3740	30346	
3741	30352	
3742	30428	
3743	30581	
3744	30809	
3745	31098	
3746	31443	
3747	31856	
3748	32375	
3749	33049	
3750	33912	
3751	34951	
3752	36093	
3753	37222	
3754	38213	
3755	38980	
3756	39504	
3757	39827	
3758	40030	
3759	40189	
3760	40357	
3761	40555	
3762	40787	
3763	41053	
3764	41351	
3765	41666	
3766	41968	
3767	42210	
3768	42344	
3769	42341	
3770	42205	
3771	41968	
3772	41676	
3773	41364	
3774	41038	
3775	40678	
3776	40254	
3777	39752	
3778	39191	
3779	38615	
3780	38071	
3781	37581	
3782	37132	
3783	36687	
3784	36208	
3785	35684	
3786	35138	
3787	34618	
3788	34175	
3789	33834	
3790	33588	
3791	33403	
3792	33243	
3793	33083	
3794	32913	
3795	32718	
3796	32477	
3797	32174	
3798	31818	
3799	31457	
3800	31160	
3801	30978	
3802	30906	
3803	30889	
3804	30850	
3805	30746	
3806	30593	
3807	30453	
3808	30385	
3809	30405	
3810	30472	
3811	30520	
3812	30502	
3813	30428	
3814	30347	
3815	30315	
3816	30345	
3817	30403	
3818	30436	
3819	30408	
3820	30329	
3821	30244	
3822	30199	
3823	30209	
3824	30248	
3825	30275	
3826	30262	
3827	30218	
3828	30176	
3829	30168	
3830	30198	
3831	30239	
3832	30260	
3833	30245	
3834	30208	
3835	30179	
3836	30178	
3837	30204	
3838	30229	
3839	30231	
3840	30204	
3841	30167	
3842	30147	
3843	30155	
3844	30183	
3845	30205	
3846	30201	
3847	30173	
3848	30140	
3849	30127	
3850	30141	
3851	30169	
3852	30185	
3853	30176	
3854	30149	
3855	30126	
3856	30125	
3857	30145	
3858	30167	
3859	30164	
3860	30128	
3861	30073	
3862	30027	
3863	30016	
3864	30043	
3865	30089	
3866	30126	
3867	30137	
3868	30123	
3869	30105	
3870	30098	
3871	30109	
3872	30128	
3873	30142	
3874	30146	
3875	30143	
3876	30141	
3877	30145	
3878	30150	
3879	30147	
3880	30134	
3881	30114	
3882	30097	
3883	30094	
3884	30105	
3885	30123	
3886	30137	
3887	30142	
3888	30142	
3889	30142	
3890	30145	
3891	30148	
3892	30146	
3893	30136	
3894	30123	
3895	30111	
3896	30105	
3897	30104	
3898	30104	
3899	30104	
3900	30104	
3901	30109	
3902	30119	
3903	30130	
3904	30135	
3905	30131	
3906	30122	
3907	30112	
3908	30104	
3909	30096	
3910	30085	
3911	30071	
3912	30058	
3913	30052	
3914	30054	
3915	30058	
3916	30055	
3917	30042	
3918	30023	
3919	30009	
3920	30010	
3921	30025	
3922	30045	
3923	30055	
3924	30049	
3925	30032	
3926	30016	
3927	30011	
3928	30016	
3929	30024	
3930	30028	
3931	30028	
3932	30028	
3933	30033	
3934	30039	
3935	30038	
3936	30021	
3937	29991	
3938	29956	
3939	29933	
3940	29930	
3941	29946	
3942	29971	
3943	29994	
3944	30007	
3945	30006	
3946	29994	
3947	29972	
3948	29944	
3949	29918	
3950	29901	
3951	29903	
3952	29923	
3953	29953	
3954	29978	
3955	29986	
3956	29972	
3957	29944	
3958	29912	
3959	29886	
3960	29870	
3961	29861	
3962	29858	
3963	29860	
3964	29865	
3965	29868	
3966	29863	
3967	29847	
3968	29821	
3969	29793	
3970	29773	
3971	29763	
3972	29759	
3973	29755	
3974	29746	
3975	29731	
3976	29715	
3977	29703	
3978	29699	
3979	29703	
3980	29711	
3981	29717	
3982	29718	
3983	29713	
3984	29704	
3985	29697	
3986	29698	
3987	29708	
3988	29725	
3989	29737	
3990	29732	
3991	29702	
3992	29654	
3993	29605	
3994	29575	
3995	29574	
3996	29592	
3997	29605	
3998	29594	
3999	29554	
4000	29503	
4001	29465	
4002	29459	
4003	29479	
4004	29508	
4005	29525	
4006	29522	
4007	29508	
4008	29496	
4009	29493	
4010	29492	
4011	29481	
4012	29457	
4013	29431	
4014	29417	
4015	29424	
4016	29443	
4017	29457	
4018	29457	
4019	29452	
4020	29456	
4021	29480	
4022	29516	
4023	29542	
4024	29542	
4025	29516	
4026	29483	
4027	29464	
4028	29471	
4029	29498	
4030	29529	
4031	29550	
4032	29556	
4033	29554	
4034	29549	
4035	29546	
4036	29544	
4037	29545	
4038	29554	
4039	29574	
4040	29609	
4041	29650	
4042	29687	
4043	29707	
4044	29711	
4045	29708	
4046	29713	
4047	29731	
4048	29758	
4049	29783	
4050	29799	
4051	29809	
4052	29820	
4053	29837	
4054	29858	
4055	29873	
4056	29881	
4057	29886	
4058	29900	
4059	29930	
4060	29970	
4061	30006	
4062	30023	
4063	30020	
4064	30007	
4065	30002	
4066	30018	
4067	30054	
4068	30094	
4069	30121	
4070	30129	
4071	30121	
4072	30113	
4073	30114	
4074	30125	
4075	30135	
4076	30132	
4077	30117	
4078	30102	
4079	30101	
4080	30122	
4081	30156	
4082	30189	
4083	30209	
4084	30215	
4085	30214	
4086	30215	
4087	30219	
4088	30221	
4089	30218	
4090	30212	
4091	30210	
4092	30221	
4093	30247	
4094	30284	
4095	30320	
4096	30345	
4097	30351	
4098	30338	
4099	30315	
4100	30293	
4101	30280	
4102	30277	
4103	30278	
4104	30277	
4105	30269	
4106	30256	
4107	30240	
4108	30226	
4109	30217	
4110	30217	
4111	30226	
4112	30245	
4113	30266	
4114	30281	
4115	30280	
4116	30260	
4117	30229	
4118	30197	
4119	30174	
4120	30163	
4121	30162	
4122	30166	
4123	30170	
4124	30172	
4125	30173	
4126	30176	
4127	30179	
4128	30180	
4129	30179	
4130	30178	
4131	30183	
4132	30194	
4133	30211	
4134	30228	
4135	30236	
4136	30233	
4137	30220	
4138	30205	
4139	30193	
4140	30186	
4141	30185	
4142	30184	
4143	30182	
4144	30176	
4145	30169	
4146	30164	
4147	30165	
4148	30174	
4149	30193	
4150	30218	
4151	30247	
4152	30273	
4153	30291	
4154	30297	
4155	30292	
4156	30281	
4157	30272	
4158	30269	
4159	30272	
4160	30276	
4161	30276	
4162	30266	
4163	30248	
4164	30229	
4165	30216	
4166	30214	
4167	30224	
4168	30242	
4169	30261	
4170	30277	
4171	30285	
4172	30285	
4173	30280	
4174	30273	
4175	30268	
4176	30271	
4177	30281	
4178	30293	
4179	30299	
4180	30289	
4181	30264	
4182	30230	
4183	30200	
4184	30183	
4185	30183	
4186	30194	
4187	30209	
4188	30221	
4189	30225	
4190	30222	
4191	30213	
4192	30200	
4193	30185	
4194	30170	
4195	30158	
4196	30153	
4197	30161	
4198	30184	
4199	30216	
4200	30242	
4201	30249	
4202	30230	
4203	30194	
4204	30162	
4205	30151	
4206	30163	
4207	30183	
4208	30192	
4209	30177	
4210	30145	
4211	30116	
4212	30103	
4213	30108	
4214	30117	
4215	30116	
4216	30101	
4217	30082	
4218	30077	
4219	30095	
4220	30130	
4221	30167	
4222	30190	
4223	30194	
4224	30188	
4225	30180	
4226	30176	
4227	30168	
4228	30149	
4229	30118	
4230	30089	
4231	30077	
4232	30093	
4233	30129	
4234	30165	
4235	30182	
4236	30179	
4237	30169	
4238	30170	
4239	30187	
4240	30205	
4241	30200	
4242	30162	
4243	30103	
4244	30058	
4245	30054	
4246	30096	
4247	30158	
4248	30201	
4249	30204	
4250	30168	
4251	30119	
4252	30086	
4253	30081	
4254	30100	
4255	30128	
4256	30156	
4257	30187	
4258	30230	
4259	30290	
4260	30363	
4261	30434	
4262	30486	
4263	30514	
4264	30524	
4265	30531	
4266	30542	
4267	30555	
4268	30558	
4269	30544	
4270	30513	
4271	30478	
4272	30449	
4273	30430	
4274	30415	
4275	30396	
4276	30370	
4277	30347	
4278	30338	
4279	30346	
4280	30360	
4281	30362	
4282	30338	
4283	30290	
4284	30232	
4285	30187	
4286	30167	
4287	30170	
4288	30185	
4289	30196	
4290	30194	
4291	30179	
4292	30161	
4293	30147	
4294	30141	
4295	30139	
4296	30136	
4297	30123	
4298	30100	
4299	30068	
4300	30033	
4301	30000	
4302	29971	
4303	29946	
4304	29924	
4305	29902	
4306	29879	
4307	29857	
4308	29840	
4309	29834	
4310	29839	
4311	29854	
4312	29869	
4313	29877	
4314	29873	
4315	29858	
4316	29839	
4317	29825	
4318	29823	
4319	29834	
4320	29851	
4321	29864	
4322	29862	
4323	29842	
4324	29808	
4325	29775	
4326	29755	
4327	29757	
4328	29776	
4329	29800	
4330	29818	
4331	29820	
4332	29805	
4333	29780	
4334	29754	
4335	29736	
4336	29731	
4337	29738	
4338	29750	
4339	29761	
4340	29762	
4341	29750	
4342	29731	
4343	29713	
4344	29704	
4345	29709	
4346	29725	
4347	29742	
4348	29752	
4349	29750	
4350	29740	
4351	29731	
4352	29730	
4353	29737	
4354	29745	
4355	29745	
4356	29736	
4357	29725	
4358	29719	
4359	29723	
4360	29730	
4361	29729	
4362	29718	
4363	29698	
4364	29679	
4365	29662	
4366	29640	
4367	29596	
4368	29522	
4369	29423	
4370	29313	
4371	29213	
4372	29133	
4373	29079	
4374	29053	
4375	29069	
4376	29148	
4377	29311	
4378	29569	
4379	29923	
4380	30369	
4381	30916	
4382	31589	
4383	32416	
4384	33400	
4385	34504	
4386	35637	
4387	36686	
4388	37550	
4389	38186	
4390	38616	
4391	38909	
4392	39147	
4393	39382	
4394	39634	
4395	39901	
4396	40173	
4397	40449	
4398	40730	
4399	41002	
4400	41238	
4401	41401	
4402	41456	
4403	41389	
4404	41210	
4405	40948	
4406	40635	
4407	40289	
4408	39909	
4409	39480	
4410	38992	
4411	38454	
4412	37891	
4413	37335	
4414	36805	
4415	36298	
4416	35797	
4417	35283	
4418	34752	
4419	34220	
4420	33716	
4421	33272	
4422	32909	
4423	32634	
4424	32435	
4425	32291	
4426	32168	
4427	32023	
4428	31817	
4429	31522	
4430	31145	
4431	30730	
4432	30347	
4433	30060	
4434	29901	
4435	29848	
4436	29839	
4437	29805	
4438	29713	
4439	29575	
4440	29443	
4441	29366	
4442	29361	
4443	29397	
4444	29422	
4445	29400	
4446	29334	
4447	29264	
4448	29234	
4449	29261	
4450	29317	
4451	29351	
4452	29325	
4453	29245	
4454	29152	
4455	29095	
4456	29096	
4457	29135	
4458	29168	
4459	29166	
4460	29128	
4461	29089	
4462	29081	
4463	29114	
4464	29163	
4465	29190	
4466	29172	
4467	29117	
4468	29060	
4469	29037	
4470	29057	
4471	29100	
4472	29130	
4473	29126	
4474	29092	
4475	29058	
4476	29050	
4477	29077	
4478	29118	
4479	29142	
4480	29130	
4481	29092	
4482	29054	
4483	29046	
4484	29072	
4485	29109	
4486	29125	
4487	29103	
4488	29056	
4489	29018	
4490	29019	
4491	29058	
4492	29108	
4493	29132	
4494	29117	
4495	29079	
4496	29051	
4497	29055	
4498	29084	
4499	29109	
4500	29109	
4501	29085	
4502	29063	
4503	29067	
4504	29103	
4505	29151	
4506	29185	
4507	29190	
4508	29173	
4509	29153	
4510	29146	
4511	29152	
4512	29161	
4513	29157	
4514	29141	
4515	29124	
4516	29122	
4517	29142	
4518	29172	
4519	29193	
4520	29192	
4521	29170	
4522	29146	
4523	29138	
4524	29148	
4525	29164	
4526	29165	
4527	29141	
4528	29107	
4529	29086	
4530	29093	
4531	29123	
4532	29147	
4533	29144	
4534	29110	
4535	29070	
4536	29051	
4537	29065	
4538	29099	
4539	29125	
4540	29123	
4541	29099	
4542	29074	
4543	29068	
4544	29083	
4545	29103	
4546	29111	
4547	29101	
4548	29085	
4549	29081	
4550	29094	
4551	29111	
4552	29114	
4553	29095	
4554	29063	
4555	29039	
4556	29038	
4557	29057	
4558	29082	
4559	29097	
4560	29099	
4561	29093	
4562	29087	
4563	29079	
4564	29064	
4565	29040	
4566	29017	
4567	29013	
4568	29039	
4569	29091	
4570	29149	
4571	29184	
4572	29182	
4573	29149	
4574	29108	
4575	29079	
4576	29072	
4577	29079	
4578	29088	
4579	29091	
4580	29089	
4581	29083	
4582	29070	
4583	29047	
4584	29011	
4585	28970	
4586	28941	
4587	28936	
4588	28953	
4589	28974	
4590	28977	
4591	28955	
4592	28921	
4593	28898	
4594	28902	
4595	28928	
4596	28958	
4597	28971	
4598	28963	
4599	28943	
4600	28922	
4601	28906	
4602	28897	
4603	28895	
4604	28900	
4605	28915	
4606	28934	
4607	28949	
4608	28952	
4609	28939	
4610	28917	
4611	28898	
4612	28889	
4613	28890	
4614	28890	
4615	28879	
4616	28857	
4617	28830	
4618	28813	
4619	28811	
4620	28821	
4621	28828	
4622	28818	
4623	28788	
4624	28749	
4625	28720	
4626	28715	
4627	28731	
4628	28752	
4629	28755	
4630	28733	
4631	28696	
4632	28666	
4633	28663	
4634	28685	
4635	28712	
4636	28719	
4637	28697	
4638	28657	
4639	28621	
4640	28607	
4641	28614	
4642	28626	
4643	28630	
4644	28620	
4645	28603	
4646	28587	
4647	28576	
4648	28564	
4649	28551	
4650	28539	
4651	28532	
4652	28530	
4653	28528	
4654	28522	
4655	28513	
4656	28505	
4657	28503	
4658	28504	
4659	28503	
4660	28495	
4661	28485	
4662	28483	
4663	28494	
4664	28517	
4665	28542	
4666	28563	
4667	28577	
4668	28591	
4669	28609	
4670	28631	
4671	28654	
4672	28678	
4673	28706	
4674	28742	
4675	28783	
4676	28819	
4677	28837	
4678	28833	
4679	28814	
4680	28795	
4681	28793	
4682	28812	
4683	28850	
4684	28895	
4685	28935	
4686	28959	
4687	28969	
4688	28970	
4689	28974	
4690	28990	
4691	29017	
4692	29048	
4693	29078	
4694	29106	
4695	29135	
4696	29169	
4697	29204	
4698	29230	
4699	29239	
4700	29232	
4701	29221	
4702	29223	
4703	29246	
4704	29287	
4705	29329	
4706	29358	
4707	29366	
4708	29358	
4709	29347	
4710	29344	
4711	29352	
4712	29367	
4713	29378	
4714	29378	
4715	29365	
4716	29350	
4717	29344	
4718	29354	
4719	29377	
4720	29402	
4721	29419	
4722	29425	
4723	29420	
4724	29410	
4725	29398	
4726	29384	
4727	29374	
4728	29375	
4729	29391	
4730	29419	
4731	29446	
4732	29457	
4733	29448	
4734	29429	
4735	29414	
4736	29416	
4737	29433	
4738	29452	
4739	29462	
4740	29457	
4741	29443	
4742	29431	
4743	29427	
4744	29431	
4745	29439	
4746	29445	
4747	29447	
4748	29446	
4749	29440	
4750	29431	
4751	29420	
4752	29407	
4753	29398	
4754	29400	
4755	29416	
4756	29440	
4757	29461	
4758	29467	
4759	29454	
4760	29434	
4761	29422	
4762	29428	
4763	29444	
4764	29455	
4765	29446	
4766	29421	
4767	29398	
4768	29394	
4769	29414	
4770	29444	
4771	29463	
4772	29459	
4773	29437	
4774	29413	
4775	29403	
4776	29411	
4777	29430	
4778	29450	
4779	29465	
4780	29475	
4781	29483	
4782	29488	
4783	29486	
4784	29475	
4785	29459	
4786	29446	
4787	29445	
4788	29457	
4789	29477	
4790	29488	
4791	29479	
4792	29452	
4793	29419	
4794	29399	
4795	29403	
4796	29429	
4797	29461	
4798	29483	
4799	29488	
4800	29482	
4801	29476	
4802	29477	
4803	29483	
4804	29483	
4805	29474	
4806	29459	
4807	29448	
4808	29453	
4809	29472	
4810	29498	
4811	29517	
4812	29519	
4813	29503	
4814	29479	
4815	29459	
4816	29454	
4817	29470	
4818	29503	
4819	29539	
4820	29562	
4821	29564	
4822	29546	
4823	29519	
4824	29499	
4825	29497	
4826	29511	
4827	29532	
4828	29548	
4829	29550	
4830	29539	
4831	29525	
4832	29515	
4833	29513	
4834	29515	
4835	29514	
4836	29511	
4837	29507	
4838	29509	
4839	29519	
4840	29535	
4841	29548	
4842	29550	
4843	29540	
4844	29522	
4845	29508	
4846	29507	
4847	29522	
4848	29547	
4849	29573	
4850	29592	
4851	29604	
4852	29616	
4853	29629	
4854	29637	
4855	29627	
4856	29598	
4857	29557	
4858	29526	
4859	29520	
4860	29539	
4861	29565	
4862	29579	
4863	29575	
4864	29564	
4865	29564	
4866	29580	
4867	29598	
4868	29598	
4869	29567	
4870	29515	
4871	29468	
4872	29450	
4873	29465	
4874	29497	
4875	29521	
4876	29522	
4877	29505	
4878	29490	
4879	29496	
4880	29527	
4881	29569	
4882	29600	
4883	29608	
4884	29599	
4885	29592	
4886	29608	
4887	29653	
4888	29720	
4889	29789	
4890	29845	
4891	29887	
4892	29919	
4893	29950	
4894	29981	
4895	30006	
4896	30020	
4897	30024	
4898	30024	
4899	30024	
4900	30023	
4901	30016	
4902	29996	
4903	29964	
4904	29932	
4905	29910	
4906	29903	
4907	29905	
4908	29905	
4909	29893	
4910	29869	
4911	29840	
4912	29816	
4913	29800	
4914	29788	
4915	29775	
4916	29753	
4917	29724	
4918	29694	
4919	29669	
4920	29656	
4921	29654	
4922	29661	
4923	29677	
4924	29696	
4925	29713	
4926	29717	
4927	29701	
4928	29660	
4929	29605	
4930	29553	
4931	29518	
4932	29505	
4933	29504	
4934	29498	
4935	29476	
4936	29441	
4937	29408	
4938	29393	
4939	29399	
4940	29415	
4941	29422	
4942	29408	
4943	29378	
4944	29345	
4945	29324	
4946	29320	
4947	29328	
4948	29338	
4949	29348	
4950	29359	
4951	29370	
4952	29377	
4953	29369	
4954	29339	
4955	29296	
4956	29255	
4957	29237	
4958	29248	
4959	29278	
4960	29308	
4961	29322	
4962	29319	
4963	29312	
4964	29315	
4965	29332	
4966	29352	
4967	29359	
4968	29347	
4969	29328	
4970	29317	
4971	29325	
4972	29344	
4973	29357	
4974	29355	
4975	29343	
4976	29335	
4977	29343	
4978	29366	
4979	29386	
4980	29387	
4981	29368	
4982	29340	
4983	29325	
4984	29331	
4985	29353	
4986	29374	
4987	29381	
4988	29369	
4989	29346	
4990	29320	
4991	29297	
4992	29276	
4993	29260	
4994	29254	
4995	29264	
4996	29283	
4997	29294	
4998	29278	
4999	29228	
5000	29152	
5001	29068	
5002	28991	
5003	28924	
5004	28865	
5005	28820	
5006	28806	
5007	28851	
5008	28978	
5009	29193	
5010	29482	
5011	29827	
5012	30228	
5013	30721	
5014	31361	
5015	32197	
5016	33231	
5017	34394	
5018	35562	
5019	36601	
5020	37414	
5021	37978	
5022	38341	
5023	38582	
5024	38773	
5025	38953	
5026	39124	
5027	39281	
5028	39428	
5029	39583	
5030	39763	
5031	39962	
5032	40140	
5033	40239	
5034	40214	
5035	40052	
5036	39777	
5037	39431	
5038	39052	
5039	38657	
5040	38240	
5041	37788	
5042	37287	
5043	36741	
5044	36174	
5045	35625	
5046	35124	
5047	34678	
5048	34264	
5049	33841	
5050	33385	
5051	32909	
5052	32461	
5053	32094	
5054	31833	
5055	31663	
5056	31544	
5057	31440	
5058	31331	
5059	31210	
5060	31061	
5061	30852	
5062	30555	
5063	30180	
5064	29792	
5065	29482	
5066	29321	
5067	29308	
5068	29370	
5069	29403	
5070	29344	
5071	29199	
5072	29040	
5073	28947	
5074	28954	
5075	29030	
5076	29108	
5077	29133	
5078	29103	
5079	29061	
5080	29058	
5081	29115	
5082	29198	
5083	29247	
5084	29216	
5085	29110	
5086	28988	
5087	28916	
5088	28926	
5089	28993	
5090	29055	
5091	29062	
5092	29011	
5093	28944	
5094	28913	
5095	28935	
5096	28985	
5097	29014	
5098	28991	
5099	28932	
5100	28882	
5101	28881	
5102	28931	
5103	28993	
5104	29017	
5105	28985	
5106	28923	
5107	28885	
5108	28909	
5109	28986	
5110	29066	
5111	29094	
5112	29050	
5113	28964	
5114	28888	
5115	28863	
5116	28887	
5117	28928	
5118	28949	
5119	28940	
5120	28917	
5121	28909	
5122	28924	
5123	28952	
5124	28970	
5125	28967	
5126	28946	
5127	28926	
5128	28917	
5129	28920	
5130	28928	
5131	28936	
5132	28944	
5133	28952	
5134	28959	
5135	28957	
5136	28946	
5137	28933	
5138	28928	
5139	28936	
5140	28951	
5141	28960	
5142	28953	
5143	28932	
5144	28910	
5145	28900	
5146	28901	
5147	28907	
5148	28908	
5149	28908	
5150	28919	
5151	28948	
5152	28987	
5153	29017	
5154	29017	
5155	28988	
5156	28949	
5157	28925	
5158	28925	
5159	28940	
5160	28949	
5161	28940	
5162	28917	
5163	28899	
5164	28905	
5165	28936	
5166	28978	
5167	29008	
5168	29013	
5169	28994	
5170	28965	
5171	28943	
5172	28934	
5173	28938	
5174	28948	
5175	28962	
5176	28976	
5177	28987	
5178	28989	
5179	28980	
5180	28964	
5181	28953	
5182	28957	
5183	28977	
5184	29002	
5185	29013	
5186	29001	
5187	28972	
5188	28946	
5189	28941	
5190	28960	
5191	28989	
5192	29011	
5193	29017	
5194	29010	
5195	29000	
5196	28992	
5197	28985	
5198	28977	
5199	28969	
5200	28968	
5201	28974	
5202	28986	
5203	28994	
5204	28989	
5205	28972	
5206	28953	
5207	28944	
5208	28951	
5209	28967	
5210	28981	
5211	28983	
5212	28973	
5213	28963	
5214	28964	
5215	28977	
5216	28990	
5217	28990	
5218	28972	
5219	28949	
5220	28935	
5221	28939	
5222	28957	
5223	28973	
5224	28976	
5225	28965	
5226	28950	
5227	28943	
5228	28947	
5229	28957	
5230	28960	
5231	28949	
5232	28929	
5233	28910	
5234	28901	
5235	28904	
5236	28915	
5237	28926	
5238	28932	
5239	28935	
5240	28935	
5241	28933	
5242	28926	
5243	28912	
5244	28891	
5245	28869	
5246	28851	
5247	28842	
5248	28845	
5249	28855	
5250	28863	
5251	28861	
5252	28842	
5253	28809	
5254	28769	
5255	28737	
5256	28723	
5257	28732	
5258	28759	
5259	28788	
5260	28808	
5261	28815	
5262	28814	
5263	28817	
5264	28829	
5265	28844	
5266	28849	
5267	28830	
5268	28788	
5269	28742	
5270	28717	
5271	28725	
5272	28760	
5273	28794	
5274	28804	
5275	28780	
5276	28741	
5277	28713	
5278	28714	
5279	28740	
5280	28764	
5281	28763	
5282	28733	
5283	28696	
5284	28680	
5285	28700	
5286	28740	
5287	28773	
5288	28779	
5289	28764	
5290	28752	
5291	28764	
5292	28799	
5293	28839	
5294	28864	
5295	28869	
5296	28867	
5297	28873	
5298	28893	
5299	28913	
5300	28919	
5301	28902	
5302	28876	
5303	28860	
5304	28871	
5305	28907	
5306	28950	
5307	28984	
5308	29001	
5309	29011	
5310	29026	
5311	29055	
5312	29095	
5313	29135	
5314	29168	
5315	29192	
5316	29212	
5317	29235	
5318	29265	
5319	29294	
5320	29312	
5321	29310	
5322	29292	
5323	29275	
5324	29277	
5325	29304	
5326	29345	
5327	29379	
5328	29395	
5329	29399	
5330	29411	
5331	29446	
5332	29500	
5333	29554	
5334	29585	
5335	29591	
5336	29588	
5337	29601	
5338	29640	
5339	29691	
5340	29728	
5341	29731	
5342	29703	
5343	29669	
5344	29655	
5345	29670	
5346	29703	
5347	29731	
5348	29742	
5349	29736	
5350	29728	
5351	29727	
5352	29733	
5353	29740	
5354	29748	
5355	29760	
5356	29784	
5357	29816	
5358	29847	
5359	29863	
5360	29858	
5361	29841	
5362	29828	
5363	29827	
5364	29836	
5365	29845	
5366	29844	
5367	29837	
5368	29835	
5369	29852	
5370	29886	
5371	29920	
5372	29930	
5373	29909	
5374	29870	
5375	29844	
5376	29850	
5377	29887	
5378	29929	
5379	29947	
5380	29927	
5381	29883	
5382	29847	
5383	29841	
5384	29867	
5385	29904	
5386	29928	
5387	29927	
5388	29913	
5389	29907	
5390	29922	
5391	29953	
5392	29977	
5393	29978	
5394	29953	
5395	29921	
5396	29905	
5397	29919	
5398	29952	
5399	29983	
5400	29993	
5401	29984	
5402	29969	
5403	29968	
5404	29983	
5405	30001	
5406	30006	
5407	29987	
5408	29955	
5409	29927	
5410	29917	
5411	29927	
5412	29941	
5413	29946	
5414	29937	
5415	29921	
5416	29911	
5417	29912	
5418	29918	
5419	29922	
5420	29920	
5421	29921	
5422	29931	
5423	29952	
5424	29971	
5425	29974	
5426	29953	
5427	29921	
5428	29898	
5429	29898	
5430	29919	
5431	29942	
5432	29952	
5433	29948	
5434	29941	
5435	29947	
5436	29967	
5437	29988	
5438	29996	
5439	29987	
5440	29974	
5441	29978	
5442	30007	
5443	30050	
5444	30080	
5445	30076	
5446	30039	
5447	29995	
5448	29976	
5449	29998	
5450	30049	
5451	30098	
5452	30121	
5453	30114	
5454	30096	
5455	30093	
5456	30114	
5457	30149	
5458	30177	
5459	30180	
5460	30162	
5461	30138	
5462	30128	
5463	30136	
5464	30151	
5465	30156	
5466	30144	
5467	30121	
5468	30102	
5469	30103	
5470	30123	
5471	30149	
5472	30166	
5473	30166	
5474	30154	
5475	30145	
5476	30151	
5477	30171	
5478	30193	
5479	30201	
5480	30191	
5481	30170	
5482	30155	
5483	30156	
5484	30172	
5485	30192	
5486	30208	
5487	30216	
5488	30219	
5489	30221	
5490	30222	
5491	30219	
5492	30212	
5493	30206	
5494	30207	
5495	30215	
5496	30225	
5497	30225	
5498	30212	
5499	30193	
5500	30181	
5501	30189	
5502	30218	
5503	30257	
5504	30286	
5505	30293	
5506	30279	
5507	30254	
5508	30233	
5509	30227	
5510	30232	
5511	30241	
5512	30249	
5513	30253	
5514	30261	
5515	30278	
5516	30304	
5517	30338	
5518	30372	
5519	30404	
5520	30440	
5521	30486	
5522	30546	
5523	30618	
5524	30688	
5525	30745	
5526	30779	
5527	30793	
5528	30793	
5529	30788	
5530	30782	
5531	30773	
5532	30758	
5533	30741	
5534	30728	
5535	30725	
5536	30728	
5537	30726	
5538	30709	
5539	30678	
5540	30643	
5541	30617	
5542	30606	
5543	30598	
5544	30577	
5545	30532	
5546	30472	
5547	30421	
5548	30399	
5549	30410	
5550	30436	
5551	30449	
5552	30433	
5553	30395	
5554	30359	
5555	30345	
5556	30357	
5557	30380	
5558	30391	
5559	30385	
5560	30367	
5561	30354	
5562	30350	
5563	30346	
5564	30325	
5565	30279	
5566	30221	
5567	30177	
5568	30168	
5569	30192	
5570	30226	
5571	30237	
5572	30215	
5573	30173	
5574	30143	
5575	30144	
5576	30172	
5577	30196	
5578	30187	
5579	30141	
5580	30084	
5581	30053	
5582	30067	
5583	30112	
5584	30154	
5585	30159	
5586	30123	
5587	30070	
5588	30034	
5589	30035	
5590	30068	
5591	30106	
5592	30122	
5593	30108	
5594	30078	
5595	30053	
5596	30049	
5597	30065	
5598	30085	
5599	30095	
5600	30091	
5601	30081	
5602	30080	
5603	30094	
5604	30115	
5605	30127	
5606	30117	
5607	30089	
5608	30058	
5609	30039	
5610	30041	
5611	30055	
5612	30067	
5613	30064	
5614	30048	
5615	30029	
5616	30019	
5617	30021	
5618	30029	
5619	30033	
5620	30031	
5621	30028	
5622	30030	
5623	30042	
5624	30057	
5625	30070	
5626	30072	
5627	30063	
5628	30041	
5629	30005	
5630	29956	
5631	29896	
5632	29831	
5633	29763	
5634	29692	
5635	29620	
5636	29554	
5637	29515	
5638	29530	
5639	29622	
5640	29799	
5641	30048	
5642	30353	
5643	30706	
5644	31131	
5645	31674	
5646	32386	
5647	33288	
5648	34351	
5649	35490	
5650	36589	
5651	37535	
5652	38259	
5653	38746	
5654	39033	
5655	39188	
5656	39281	
5657	39367	
5658	39478	
5659	39625	
5660	39805	
5661	40014	
5662	40240	
5663	40463	
5664	40649	
5665	40753	
5666	40734	
5667	40578	
5668	40303	
5669	39957	
5670	39593	
5671	39239	
5672	38885	
5673	38492	
5674	38030	
5675	37505	
5676	36959	
5677	36445	
5678	35984	
5679	35557	
5680	35117	
5681	34632	
5682	34111	
5683	33602	
5684	33163	
5685	32833	
5686	32613	
5687	32475	
5688	32379	
5689	32293	
5690	32195	
5691	32060	
5692	31863	
5693	31584	
5694	31231	
5695	30854	
5696	30528	
5697	30317	
5698	30234	
5699	30230	
5700	30219	
5701	30136	
5702	29981	
5703	29814	
5704	29717	
5705	29730	
5706	29822	
5707	29915	
5708	29937	
5709	29873	
5710	29771	
5711	29705	
5712	29717	
5713	29790	
5714	29863	
5715	29872	
5716	29802	
5717	29687	
5718	29588	
5719	29548	
5720	29567	
5721	29609	
5722	29632	
5723	29615	
5724	29572	
5725	29534	
5726	29526	
5727	29549	
5728	29585	
5729	29605	
5730	29596	
5731	29565	
5732	29535	
5733	29530	
5734	29556	
5735	29599	
5736	29633	
5737	29635	
5738	29606	
5739	29564	
5740	29537	
5741	29538	
5742	29558	
5743	29573	
5744	29560	
5745	29522	
5746	29482	
5747	29468	
5748	29490	
5749	29534	
5750	29569	
5751	29574	
5752	29550	
5753	29517	
5754	29496	
5755	29496	
5756	29506	
5757	29512	
5758	29508	
5759	29502	
5760	29508	
5761	29530	
5762	29562	
5763	29586	
5764	29593	
5765	29582	
5766	29563	
5767	29546	
5768	29535	
5769	29527	
5770	29521	
5771	29519	
5772	29527	
5773	29548	
5774	29573	
5775	29588	
5776	29581	
5777	29553	
5778	29521	
5779	29503	
5780	29506	
5781	29521	
5782	29526	
5783	29512	
5784	29486	
5785	29472	
5786	29488	
5787	29528	
5788	29567	
5789	29575	
5790	29545	
5791	29496	
5792	29461	
5793	29460	
5794	29488	
5795	29518	
5796	29526	
5797	29508	
5798	29479	
5799	29460	
5800	29462	
5801	29480	
5802	29495	
5803	29497	
5804	29486	
5805	29473	
5806	29469	
5807	29476	
5808	29487	
5809	29491	
5810	29487	
5811	29479	
5812	29475	
5813	29478	
5814	29482	
5815	29478	
5816	29465	
5817	29449	
5818	29444	
5819	29455	
5820	29477	
5821	29495	
5822	29495	
5823	29478	
5824	29455	
5825	29438	
5826	29434	
5827	29435	
5828	29432	
5829	29423	
5830	29412	
5831	29410	
5832	29420	
5833	29435	
5834	29443	
5835	29434	
5836	29409	
5837	29380	
5838	29364	
5839	29369	
5840	29390	
5841	29409	
5842	29410	
5843	29390	
5844	29359	
5845	29333	
5846	29325	
5847	29330	
5848	29338	
5849	29335	
5850	29315	
5851	29282	
5852	29250	
5853	29230	
5854	29232	
5855	29253	
5856	29281	
5857	29304	
5858	29310	
5859	29304	
5860	29293	
5861	29290	
5862	29296	
5863	29303	
5864	29304	
5865	29296	
5866	29288	
5867	29288	
5868	29296	
5869	29303	
5870	29297	
5871	29277	
5872	29253	
5873	29238	
5874	29238	
5875	29246	
5876	29250	
5877	29245	
5878	29233	
5879	29223	
5880	29217	
5881	29216	
5882	29215	
5883	29216	
5884	29219	
5885	29224	
5886	29227	
5887	29220	
5888	29204	
5889	29185	
5890	29171	
5891	29163	
5892	29155	
5893	29141	
5894	29122	
5895	29105	
5896	29100	
5897	29107	
5898	29119	
5899	29120	
5900	29102	
5901	29067	
5902	29025	
5903	28990	
5904	28969	
5905	28962	
5906	28961	
5907	28960	
5908	28959	
5909	28960	
5910	28965	
5911	28973	
5912	28980	
5913	28981	
5914	28976	
5915	28970	
5916	28971	
5917	28986	
5918	29009	
5919	29027	
5920	29026	
5921	29005	
5922	28977	
5923	28962	
5924	28971	
5925	29001	
5926	29030	
5927	29041	
5928	29029	
5929	29009	
5930	29001	
5931	29012	
5932	29036	
5933	29055	
5934	29063	
5935	29069	
5936	29089	
5937	29132	
5938	29184	
5939	29225	
5940	29243	
5941	29247	
5942	29259	
5943	29297	
5944	29357	
5945	29414	
5946	29439	
5947	29428	
5948	29400	
5949	29388	
5950	29410	
5951	29457	
5952	29502	
5953	29523	
5954	29524	
5955	29529	
5956	29561	
5957	29622	
5958	29688	
5959	29726	
5960	29725	
5961	29699	
5962	29682	
5963	29696	
5964	29738	
5965	29780	
5966	29795	
5967	29778	
5968	29754	
5969	29755	
5970	29793	
5971	29854	
5972	29900	
5973	29908	
5974	29881	
5975	29849	
5976	29844	
5977	29876	
5978	29927	
5979	29968	
5980	29981	
5981	29969	
5982	29949	
5983	29937	
5984	29936	
5985	29937	
5986	29929	
5987	29911	
5988	29893	
5989	29885	
5990	29890	
5991	29901	
5992	29912	
5993	29919	
5994	29928	
5995	29943	
5996	29965	
5997	29987	
5998	30002	
5999	30011	
6000	30019	
6001	30033	
6002	30054	
6003	30076	
6004	30088	
6005	30083	
6006	30061	
6007	30031	
6008	30006	
6009	29994	
6010	29996	
6011	30010	
6012	30032	
6013	30056	
6014	30077	
6015	30089	
6016	30087	
6017	30073	
6018	30053	
6019	30038	
6020	30034	
6021	30039	
6022	30046	
6023	30048	
6024	30042	
6025	30032	
6026	30024	
6027	30021	
6028	30021	
6029	30022	
6030	30024	
6031	30027	
6032	30035	
6033	30048	
6034	30062	
6035	30075	
6036	30084	
6037	30089	
6038	30094	
6039	30097	
6040	30096	
6041	30091	
6042	30084	
6043	30081	
6044	30086	
6045	30096	
6046	30105	
6047	30100	
6048	30077	
6049	30042	
6050	30012	
6051	30001	
6052	30014	
6053	30045	
6054	30077	
6055	30097	
6056	30100	
6057	30094	
6058	30086	
6059	30082	
6060	30079	
6061	30075	
6062	30067	
6063	30059	
6064	30056	
6065	30059	
6066	30064	
6067	30062	
6068	30049	
6069	30028	
6070	30010	
6071	30007	
6072	30024	
6073	30055	
6074	30082	
6075	30089	
6076	30074	
6077	30050	
6078	30036	
6079	30045	
6080	30074	
6081	30104	
6082	30118	
6083	30111	
6084	30095	
6085	30090	
6086	30103	
6087	30127	
6088	30141	
6089	30132	
6090	30100	
6091	30058	
6092	30026	
6093	30012	
6094	30009	
6095	30008	
6096	30001	
6097	29991	
6098	29986	
6099	29992	
6100	30008	
6101	30025	
6102	30037	
6103	30041	
6104	30043	
6105	30047	
6106	30055	
6107	30066	
6108	30077	
6109	30091	
6110	30110	
6111	30131	
6112	30149	
6113	30154	
6114	30144	
6115	30130	
6116	30124	
6117	30132	
6118	30148	
6119	30156	
6120	30147	
6121	30123	
6122	30098	
6123	30085	
6124	30087	
6125	30097	
6126	30102	
6127	30099	
6128	30089	
6129	30077	
6130	30066	
6131	30056	
6132	30047	
6133	30042	
6134	30043	
6135	30049	
6136	30053	
6137	30050	
6138	30038	
6139	30029	
6140	30033	
6141	30061	
6142	30107	
6143	30154	
6144	30182	
6145	30183	
6146	30165	
6147	30150	
6148	30159	
6149	30199	
6150	30259	
6151	30319	
6152	30364	
6153	30392	
6154	30413	
6155	30441	
6156	30482	
6157	30530	
6158	30573	
6159	30595	
6160	30594	
6161	30577	
6162	30556	
6163	30540	
6164	30528	
6165	30510	
6166	30478	
6167	30431	
6168	30378	
6169	30337	
6170	30321	
6171	30332	
6172	30356	
6173	30373	
6174	30371	
6175	30350	
6176	30320	
6177	30293	
6178	30275	
6179	30260	
6180	30243	
6181	30222	
6182	30201	
6183	30185	
6184	30173	
6185	30159	
6186	30135	
6187	30102	
6188	30071	
6189	30051	
6190	30049	
6191	30057	
6192	30066	
6193	30068	
6194	30064	
6195	30062	
6196	30069	
6197	30082	
6198	30090	
6199	30082	
6200	30054	
6201	30018	
6202	29993	
6203	29993	
6204	30014	
6205	30040	
6206	30048	
6207	30030	
6208	29996	
6209	29966	
6210	29954	
6211	29957	
6212	29960	
6213	29948	
6214	29923	
6215	29899	
6216	29891	
6217	29904	
6218	29925	
6219	29936	
6220	29922	
6221	29888	
6222	29849	
6223	29825	
6224	29824	
6225	29838	
6226	29852	
6227	29854	
6228	29840	
6229	29822	
6230	29809	
6231	29804	
6232	29803	
6233	29797	
6234	29787	
6235	29783	
6236	29796	
6237	29827	
6238	29862	
6239	29881	
6240	29875	
6241	29849	
6242	29822	
6243	29811	
6244	29818	
6245	29827	
6246	29822	
6247	29796	
6248	29759	
6249	29728	
6250	29719	
6251	29733	
6252	29758	
6253	29777	
6254	29782	
6255	29774	
6256	29766	
6257	29768	
6258	29777	
6259	29781	
6260	29761	
6261	29707	
6262	29626	
6263	29535	
6264	29452	
6265	29384	
6266	29329	
6267	29285	
6268	29257	
6269	29265	
6270	29335	
6271	29488	
6272	29730	
6273	30051	
6274	30438	
6275	30897	
6276	31463	
6277	32179	
6278	33073	
6279	34127	
6280	35260	
6281	36353	
6282	37289	
6283	37996	
6284	38473	
6285	38783	
6286	39016	
6287	39247	
6288	39509	
6289	39795	
6290	40082	
6291	40353	
6292	40614	
6293	40874	
6294	41129	
6295	41341	
6296	41457	
6297	41431	
6298	41260	
6299	40985	
6300	40668	
6301	40353	
6302	40041	
6303	39690	
6304	39257	
6305	38731	
6306	38146	
6307	37567	
6308	37037	
6309	36557	
6310	36085	
6311	35576	
6312	35019	
6313	34449	
6314	33923	
6315	33482	
6316	33133	
6317	32856	
6318	32627	
6319	32436	
6320	32278	
6321	32142	
6322	31995	
6323	31792	
6324	31501	
6325	31129	
6326	30725	
6327	30368	
6328	30121	
6329	30006	
6330	29985	
6331	29985	
6332	29940	
6333	29823	
6334	29668	
6335	29541	
6336	29500	
6337	29547	
6338	29632	
6339	29677	
6340	29639	
6341	29530	
6342	29416	
6343	29366	
6344	29401	
6345	29482	
6346	29539	
6347	29520	
6348	29430	
6349	29326	
6350	29275	
6351	29304	
6352	29385	
6353	29454	
6354	29461	
6355	29407	
6356	29338	
6357	29309	
6358	29341	
6359	29403	
6360	29444	
6361	29432	
6362	29378	
6363	29325	
6364	29312	
6365	29340	
6366	29379	
6367	29390	
6368	29357	
6369	29298	
6370	29249	
6371	29237	
6372	29265	
6373	29311	
6374	29346	
6375	29357	
6376	29352	
6377	29350	
6378	29360	
6379	29381	
6380	29398	
6381	29401	
6382	29392	
6383	29385	
6384	29391	
6385	29410	
6386	29430	
6387	29434	
6388	29417	
6389	29385	
6390	29359	
6391	29352	
6392	29367	
6393	29390	
6394	29401	
6395	29393	
6396	29377	
6397	29372	
6398	29389	
6399	29423	
6400	29456	
6401	29468	
6402	29456	
6403	29435	
6404	29424	
6405	29428	
6406	29438	
6407	29439	
6408	29423	
6409	29401	
6410	29392	
6411	29405	
6412	29430	
6413	29448	
6414	29440	
6415	29411	
6416	29379	
6417	29366	
6418	29381	
6419	29416	
6420	29452	
6421	29472	
6422	29471	
6423	29457	
6424	29444	
6425	29445	
6426	29458	
6427	29476	
6428	29486	
6429	29485	
6430	29474	
6431	29466	
6432	29468	
6433	29478	
6434	29489	
6435	29490	
6436	29480	
6437	29467	
6438	29462	
6439	29473	
6440	29498	
6441	29522	
6442	29531	
6443	29520	
6444	29494	
6445	29465	
6446	29445	
6447	29438	
6448	29440	
6449	29443	
6450	29439	
6451	29428	
6452	29416	
6453	29408	
6454	29410	
6455	29419	
6456	29431	
6457	29439	
6458	29439	
6459	29432	
6460	29422	
6461	29413	
6462	29409	
6463	29410	
6464	29415	
6465	29420	
6466	29424	
6467	29425	
6468	29424	
6469	29423	
6470	29427	
6471	29432	
6472	29433	
6473	29424	
6474	29407	
6475	29389	
6476	29382	
6477	29391	
6478	29414	
6479	29435	
6480	29443	
6481	29431	
6482	29403	
6483	29370	
6484	29342	
6485	29326	
6486	29326	
6487	29342	
6488	29368	
6489	29394	
6490	29409	
6491	29403	
6492	29379	
6493	29349	
6494	29327	
6495	29322	
6496	29331	
6497	29342	
6498	29346	
6499	29339	
6500	29329	
6501	29327	
6502	29337	
6503	29356	
6504	29372	
6505	29376	
6506	29368	
6507	29355	
6508	29345	
6509	29342	
6510	29342	
6511	29341	
6512	29337	
6513	29333	
6514	29331	
6515	29331	
6516	29328	
6517	29323	
6518	29318	
6519	29316	
6520	29318	
6521	29318	
6522	29311	
6523	29296	
6524	29277	
6525	29261	
6526	29251	
6527	29242	
6528	29230	
6529	29211	
6530	29192	
6531	29183	
6532	29191	
6533	29214	
6534	29240	
6535	29257	
6536	29255	
6537	29237	
6538	29213	
6539	29194	
6540	29184	
6541	29182	
6542	29180	
6543	29176	
6544	29168	
6545	29162	
6546	29159	
6547	29158	
6548	29156	
6549	29151	
6550	29146	
6551	29147	
6552	29154	
6553	29163	
6554	29166	
6555	29164	
6556	29163	
6557	29172	
6558	29193	
6559	29216	
6560	29227	
6561	29221	
6562	29205	
6563	29196	
6564	29203	
6565	29227	
6566	29257	
6567	29287	
6568	29314	
6569	29347	
6570	29386	
6571	29424	
6572	29450	
6573	29455	
6574	29448	
6575	29444	
6576	29459	
6577	29492	
6578	29529	
6579	29553	
6580	29557	
6581	29551	
6582	29550	
6583	29565	
6584	29595	
6585	29631	
6586	29662	
6587	29691	
6588	29722	
6589	29761	
6590	29806	
6591	29845	
6592	29868	
6593	29875	
6594	29874	
6595	29876	
6596	29888	
6597	29902	
6598	29909	
6599	29905	
6600	29894	
6601	29887	
6602	29897	
6603	29923	
6604	29957	
6605	29987	
6606	30006	
6607	30017	
6608	30031	
6609	30055	
6610	30091	
6611	30124	
6612	30141	
6613	30131	
6614	30102	
6615	30070	
6616	30053	
6617	30052	
6618	30062	
6619	30071	
6620	30078	
6621	30087	
6622	30103	
6623	30122	
6624	30133	
6625	30128	
6626	30113	
6627	30101	
6628	30104	
6629	30119	
6630	30134	
6631	30132	
6632	30111	
6633	30080	
6634	30061	
6635	30068	
6636	30101	
6637	30146	
6638	30182	
6639	30194	
6640	30184	
6641	30162	
6642	30142	
6643	30130	
6644	30125	
6645	30122	
6646	30117	
6647	30117	
6648	30128	
6649	30154	
6650	30189	
6651	30214	
6652	30218	
6653	30198	
6654	30169	
6655	30152	
6656	30159	
6657	30188	
6658	30218	
6659	30229	
6660	30211	
6661	30177	
6662	30148	
6663	30146	
6664	30172	
6665	30212	
6666	30244	
6667	30255	
6668	30247	
6669	30231	
6670	30222	
6671	30223	
6672	30227	
6673	30224	
6674	30210	
6675	30191	
6676	30176	
6677	30174	
6678	30181	
6679	30190	
6680	30189	
6681	30173	
6682	30151	
6683	30133	
6684	30132	
6685	30148	
6686	30171	
6687	30189	
6688	30193	
6689	30184	
6690	30174	
6691	30174	
6692	30188	
6693	30212	
6694	30236	
6695	30253	
6696	30259	
6697	30257	
6698	30248	
6699	30237	
6700	30228	
6701	30225	
6702	30233	
6703	30249	
6704	30266	
6705	30274	
6706	30269	
6707	30257	
6708	30249	
6709	30249	
6710	30257	
6711	30262	
6712	30255	
6713	30234	
6714	30212	
6715	30203	
6716	30212	
6717	30235	
6718	30255	
6719	30257	
6720	30234	
6721	30198	
6722	30169	
6723	30166	
6724	30197	
6725	30247	
6726	30295	
6727	30319	
6728	30314	
6729	30292	
6730	30271	
6731	30268	
6732	30282	
6733	30304	
6734	30319	
6735	30319	
6736	30310	
6737	30299	
6738	30294	
6739	30296	
6740	30301	
6741	30305	
6742	30308	
6743	30314	
6744	30324	
6745	30332	
6746	30332	
6747	30318	
6748	30296	
6749	30278	
6750	30278	
6751	30301	
6752	30338	
6753	30372	
6754	30386	
6755	30373	
6756	30341	
6757	30308	
6758	30287	
6759	30285	
6760	30297	
6761	30314	
6762	30329	
6763	30338	
6764	30341	
6765	30337	
6766	30326	
6767	30313	
6768	30303	
6769	30303	
6770	30314	
6771	30331	
6772	30348	
6773	30355	
6774	30352	
6775	30346	
6776	30346	
6777	30357	
6778	30378	
6779	30402	
6780	30422	
6781	30432	
6782	30434	
6783	30434	
6784	30440	
6785	30457	
6786	30487	
6787	30526	
6788	30570	
6789	30616	
6790	30667	
6791	30729	
6792	30802	
6793	30875	
6794	30925	
6795	30932	
6796	30893	
6797	30828	
6798	30771	
6799	30749	
6800	30764	
6801	30794	
6802	30809	
6803	30791	
6804	30744	
6805	30693	
6806	30660	
6807	30654	
6808	30662	
6809	30665	
6810	30649	
6811	30615	
6812	30579	
6813	30556	
6814	30547	
6815	30542	
6816	30524	
6817	30486	
6818	30436	
6819	30396	
6820	30382	
6821	30398	
6822	30429	
6823	30453	
6824	30456	
6825	30441	
6826	30420	
6827	30408	
6828	30407	
6829	30410	
6830	30404	
6831	30384	
6832	30356	
6833	30331	
6834	30319	
6835	30316	
6836	30309	
6837	30288	
6838	30252	
6839	30218	
6840	30203	
6841	30218	
6842	30253	
6843	30286	
6844	30300	
6845	30290	
6846	30269	
6847	30254	
6848	30256	
6849	30267	
6850	30272	
6851	30257	
6852	30225	
6853	30189	
6854	30164	
6855	30159	
6856	30166	
6857	30170	
6858	30160	
6859	30139	
6860	30120	
6861	30119	
6862	30138	
6863	30164	
6864	30178	
6865	30166	
6866	30132	
6867	30095	
6868	30075	
6869	30079	
6870	30101	
6871	30124	
6872	30132	
6873	30124	
6874	30110	
6875	30098	
6876	30091	
6877	30084	
6878	30069	
6879	30048	
6880	30031	
6881	30029	
6882	30046	
6883	30074	
6884	30097	
6885	30103	
6886	30092	
6887	30074	
6888	30061	
6889	30058	
6890	30061	
6891	30063	
6892	30060	
6893	30054	
6894	30046	
6895	30036	
6896	30017	
6897	29986	
6898	29941	
6899	29887	
6900	29824	
6901	29750	
6902	29663	
6903	29570	
6904	29495	
6905	29476	
6906	29544	
6907	29712	
6908	29966	
6909	30280	
6910	30643	
6911	31073	
6912	31622	
6913	32341	
6914	33255	
6915	34332	
6916	35484	
6917	36595	
6918	37557	
6919	38308	
6920	38843	
6921	39207	
6922	39467	
6923	39692	
6924	39923	
6925	40178	
6926	40453	
6927	40740	
6928	41032	
6929	41322	
6930	41591	
6931	41801	
6932	41903	
6933	41863	
6934	41682	
6935	41398	
6936	41069	
6937	40735	
6938	40400	
6939	40034	
6940	39603	
6941	39089	
6942	38508	
6943	37903	
6944	37316	
6945	36771	
6946	36260	
6947	35751	
6948	35217	
6949	34663	
6950	34127	
6951	33666	
6952	33319	
6953	33077	
6954	32893	
6955	32713	
6956	32510	
6957	32297	
6958	32094	
6959	31900	
6960	31674	
6961	31374	
6962	30997	
6963	30611	
6964	30315	
6965	30177	
6966	30179	
6967	30220	
6968	30186	
6969	30030	
6970	29802	
6971	29612	
6972	29552	
6973	29624	
6974	29750	
6975	29826	
6976	29803	
6977	29716	
6978	29646	
6979	29653	
6980	29725	
6981	29794	
6982	29789	
6983	29698	
6984	29573	
6985	29492	
6986	29496	
6987	29559	
6988	29612	
6989	29601	
6990	29524	
6991	29434	
6992	29394	
6993	29427	
6994	29500	
6995	29551	
6996	29541	
6997	29479	
6998	29413	
6999	29395	
7000	29434	
7001	29493	
7002	29520	
7003	29487	
7004	29413	
7005	29351	
7006	29343	
7007	29396	
7008	29471	
7009	29518	
7010	29511	
7011	29463	
7012	29411	
7013	29391	
7014	29407	
7015	29435	
7016	29449	
7017	29440	
7018	29425	
7019	29427	
7020	29457	
7021	29499	
7022	29526	
7023	29519	
7024	29486	
7025	29453	
7026	29445	
7027	29467	
7028	29502	
7029	29523	
7030	29514	
7031	29481	
7032	29447	
7033	29430	
7034	29438	
7035	29458	
7036	29470	
7037	29464	
7038	29448	
7039	29438	
7040	29447	
7041	29469	
7042	29486	
7043	29483	
7044	29457	
7045	29422	
7046	29397	
7047	29392	
7048	29399	
7049	29403	
7050	29397	
7051	29388	
7052	29393	
7053	29421	
7054	29465	
7055	29504	
7056	29517	
7057	29499	
7058	29464	
7059	29436	
7060	29430	
7061	29448	
7062	29474	
7063	29489	
7064	29481	
7065	29453	
7066	29423	
7067	29407	
7068	29420	
7069	29461	
7070	29515	
7071	29563	
7072	29587	
7073	29583	
7074	29559	
7075	29530	
7076	29511	
7077	29506	
7078	29512	
7079	29526	
7080	29544	
7081	29561	
7082	29573	
7083	29573	
7084	29556	
7085	29525	
7086	29488	
7087	29456	
7088	29438	
7089	29434	
7090	29440	
7091	29455	
7092	29472	
7093	29486	
7094	29490	
7095	29479	
7096	29456	
7097	29431	
7098	29413	
7099	29406	
7100	29407	
7101	29405	
7102	29399	
7103	29393	
7104	29396	
7105	29412	
7106	29433	
7107	29445	
7108	29442	
7109	29430	
7110	29421	
7111	29426	
7112	29444	
7113	29459	
7114	29460	
7115	29448	
7116	29437	
7117	29441	
7118	29463	
7119	29492	
7120	29511	
7121	29512	
7122	29499	
7123	29480	
7124	29462	
7125	29443	
7126	29418	
7127	29388	
7128	29360	
7129	29346	
7130	29350	
7131	29364	
7132	29377	
7133	29384	
7134	29385	
7135	29387	
7136	29388	
7137	29383	
7138	29364	
7139	29333	
7140	29304	
7141	29295	
7142	29312	
7143	29347	
7144	29376	
7145	29379	
7146	29352	
7147	29305	
7148	29260	
7149	29237	
7150	29243	
7151	29267	
7152	29289	
7153	29294	
7154	29276	
7155	29248	
7156	29226	
7157	29221	
7158	29235	
7159	29255	
7160	29270	
7161	29274	
7162	29271	
7163	29271	
7164	29275	
7165	29279	
7166	29270	
7167	29240	
7168	29196	
7169	29155	
7170	29136	
7171	29148	
7172	29184	
7173	29218	
7174	29227	
7175	29200	
7176	29147	
7177	29093	
7178	29063	
7179	29065	
7180	29089	
7181	29111	
7182	29118	
7183	29112	
7184	29114	
7185	29140	
7186	29190	
7187	29244	
7188	29269	
7189	29247	
7190	29183	
7191	29109	
7192	29060	
7193	29058	
7194	29092	
7195	29134	
7196	29152	
7197	29140	
7198	29115	
7199	29108	
7200	29138	
7201	29200	
7202	29267	
7203	29312	
7204	29324	
7205	29315	
7206	29311	
7207	29326	
7208	29359	
7209	29396	
7210	29420	
7211	29433	
7212	29446	
7213	29473	
7214	29515	
7215	29558	
7216	29586	
7217	29596	
7218	29603	
7219	29625	
7220	29669	
7221	29725	
7222	29769	
7223	29786	
7224	29782	
7225	29776	
7226	29790	
7227	29826	
7228	29871	
7229	29900	
7230	29905	
7231	29894	
7232	29892	
7233	29918	
7234	29974	
7235	30041	
7236	30095	
7237	30115	
7238	30101	
7239	30063	
7240	30023	
7241	29999	
7242	30000	
7243	30023	
7244	30058	
7245	30092	
7246	30117	
7247	30135	
7248	30151	
7249	30172	
7250	30198	
7251	30221	
7252	30229	
7253	30217	
7254	30188	
7255	30156	
7256	30139	
7257	30145	
7258	30169	
7259	30197	
7260	30215	
7261	30221	
7262	30221	
7263	30226	
7264	30237	
7265	30246	
7266	30242	
7267	30218	
7268	30181	
7269	30148	
7270	30135	
7271	30148	
7272	30181	
7273	30218	
7274	30245	
7275	30254	
7276	30249	
7277	30239	
7278	30234	
7279	30240	
7280	30257	
7281	30279	
7282	30297	
7283	30304	
7284	30297	
7285	30282	
7286	30268	
7287	30266	
7288	30279	
7289	30299	
7290	30312	
7291	30310	
7292	30292	
7293	30271	
7294	30262	
7295	30272	
7296	30294	
7297	30313	
7298	30316	
7299	30302	
7300	30282	
7301	30274	
7302	30288	
7303	30319	
7304	30353	
7305	30369	
7306	30362	
7307	30342	
7308	30328	
7309	30338	
7310	30370	
7311	30405	
7312	30419	
7313	30397	
7314	30346	
7315	30292	
7316	30264	
7317	30275	
7318	30321	
7319	30383	
7320	30440	
7321	30481	
7322	30501	
7323	30503	
7324	30490	
7325	30465	
7326	30433	
7327	30406	
7328	30397	
7329	30412	
7330	30447	
7331	30488	
7332	30516	
7333	30522	
7334	30508	
7335	30487	
7336	30475	
7337	30480	
7338	30501	
7339	30525	
7340	30537	
7341	30530	
7342	30505	
7343	30476	
7344	30458	
7345	30462	
7346	30483	
7347	30507	
7348	30524	
7349	30527	
7350	30523	
7351	30524	
7352	30535	
7353	30548	
7354	30551	
7355	30535	
7356	30506	
7357	30480	
7358	30473	
7359	30491	
7360	30527	
7361	30561	
7362	30580	
7363	30582	
7364	30577	
7365	30576	
7366	30586	
7367	30601	
7368	30613	
7369	30617	
7370	30613	
7371	30608	
7372	30603	
7373	30599	
7374	30590	
7375	30578	
7376	30568	
7377	30566	
7378	30576	
7379	30593	
7380	30610	
7381	30621	
7382	30629	
7383	30641	
7384	30663	
7385	30695	
7386	30725	
7387	30743	
7388	30743	
7389	30729	
7390	30715	
7391	30713	
7392	30726	
7393	30743	
7394	30753	
7395	30747	
7396	30732	
7397	30718	
7398	30717	
7399	30727	
7400	30737	
7401	30736	
7402	30722	
7403	30705	
7404	30702	
7405	30723	
7406	30760	
7407	30794	
7408	30803	
7409	30779	
7410	30738	
7411	30706	
7412	30707	
7413	30747	
7414	30815	
7415	30889	
7416	30953	
7417	30999	
7418	31031	
7419	31059	
7420	31091	
7421	31134	
7422	31187	
7423	31252	
7424	31322	
7425	31392	
7426	31450	
7427	31484	
7428	31487	
7429	31460	
7430	31415	
7431	31374	
7432	31355	
7433	31368	
7434	31405	
7435	31444	
7436	31461	
7437	31441	
7438	31387	
7439	31316	
7440	31254	
7441	31215	
7442	31202	
7443	31203	
7444	31202	
7445	31189	
7446	31165	
7447	31140	
7448	31125	
7449	31124	
7450	31128	
7451	31123	
7452	31101	
7453	31065	
7454	31027	
7455	31002	
7456	30997	
7457	31005	
7458	31017	
7459	31025	
7460	31028	
7461	31029	
7462	31032	
7463	31031	
7464	31022	
7465	30996	
7466	30953	
7467	30900	
7468	30852	
7469	30827	
7470	30836	
7471	30875	
7472	30928	
7473	30971	
7474	30985	
7475	30972	
7476	30949	
7477	30940	
7478	30957	
7479	30991	
7480	31022	
7481	31030	
7482	31013	
7483	30985	
7484	30963	
7485	30957	
7486	30961	
7487	30965	
7488	30960	
7489	30951	
7490	30946	
7491	30953	
7492	30971	
7493	30990	
7494	31001	
7495	31002	
7496	30996	
7497	30991	
7498	30992	
7499	30999	
7500	31012	
7501	31028	
7502	31044	
7503	31061	
7504	31074	
7505	31080	
7506	31076	
7507	31064	
7508	31053	
7509	31051	
7510	31061	
7511	31079	
7512	31095	
7513	31102	
7514	31098	
7515	31090	
7516	31086	
7517	31091	
7518	31101	
7519	31110	
7520	31117	
7521	31122	
7522	31131	
7523	31143	
7524	31154	
7525	31159	
7526	31155	
7527	31145	
7528	31134	
7529	31125	
7530	31112	
7531	31086	
7532	31039	
7533	30967	
7534	30881	
7535	30801	
7536	30750	
7537	30752	
7538	30818	
7539	30952	
7540	31147	
7541	31393	
7542	31689	
7543	32047	
7544	32498	
7545	33084	
7546	33844	
7547	34789	
7548	35883	
7549	37036	
7550	38125	
7551	39033	
7552	39685	
7553	40079	
7554	40274	
7555	40361	
7556	40426	
7557	40516	
7558	40640	
7559	40787	
7560	40949	
7561	41128	
7562	41326	
7563	41526	
7564	41685	
7565	41751	
7566	41684	
7567	41479	
7568	41162	
7569	40783	
7570	40386	
7571	39992	
7572	39593	
7573	39162	
7574	38677	
7575	38145	
7576	37602	
7577	37096	
7578	36651	
7579	36248	
7580	35840	
7581	35387	
7582	34892	
7583	34402	
7584	33986	
7585	33687	
7586	33509	
7587	33416	
7588	33358	
7589	33298	
7590	33213	
7591	33091	
7592	32918	
7593	32680	
7594	32381	
7595	32052	
7596	31754	
7597	31546	
7598	31452	
7599	31441	
7600	31448	
7601	31412	
7602	31320	
7603	31209	
7604	31145	
7605	31165	
7606	31255	
7607	31353	
7608	31396	
7609	31360	
7610	31278	
7611	31211	
7612	31202	
7613	31249	
7614	31306	
7615	31327	
7616	31296	
7617	31240	
7618	31205	
7619	31214	
7620	31250	
7621	31272	
7622	31246	
7623	31181	
7624	31116	
7625	31097	
7626	31136	
7627	31199	
7628	31238	
7629	31222	
7630	31167	
7631	31123	
7632	31130	
7633	31194	
7634	31274	
7635	31318	
7636	31298	
7637	31230	
7638	31163	
7639	31140	
7640	31171	
7641	31228	
7642	31270	
7643	31273	
7644	31243	
7645	31211	
7646	31203	
7647	31221	
7648	31245	
7649	31249	
7650	31227	
7651	31194	
7652	31178	
7653	31195	
7654	31236	
7655	31277	
7656	31294	
7657	31286	
7658	31272	
7659	31274	
7660	31303	
7661	31348	
7662	31382	
7663	31389	
7664	31366	
7665	31333	
7666	31309	
7667	31307	
7668	31319	
7669	31332	
7670	31332	
7671	31325	
7672	31322	
7673	31337	
7674	31368	
7675	31402	
7676	31417	
7677	31405	
7678	31372	
7679	31341	
7680	31331	
7681	31350	
7682	31388	
7683	31428	
7684	31454	
7685	31464	
7686	31467	
7687	31473	
7688	31488	
7689	31509	
7690	31529	
7691	31539	
7692	31535	
7693	31518	
7694	31490	
7695	31458	
7696	31428	
7697	31404	
7698	31392	
7699	31394	
7700	31406	
7701	31424	
7702	31442	
7703	31456	
7704	31467	
7705	31477	
7706	31488	
7707	31500	
7708	31511	
7709	31519	
7710	31523	
7711	31522	
7712	31517	
7713	31514	
7714	31518	
7715	31533	
7716	31558	
7717	31581	
7718	31594	
7719	31591	
7720	31576	
7721	31559	
7722	31549	
7723	31547	
7724	31548	
7725	31550	
7726	31552	
7727	31557	
7728	31566	
7729	31578	
7730	31588	
7731	31594	
7732	31599	
7733	31604	
7734	31610	
7735	31610	
7736	31597	
7737	31573	
7738	31546	
7739	31533	
7740	31542	
7741	31569	
7742	31601	
7743	31622	
7744	31626	
7745	31621	
7746	31620	
7747	31633	
7748	31656	
7749	31676	
7750	31680	
7751	31662	
7752	31635	
7753	31615	
7754	31615	
7755	31635	
7756	31662	
7757	31680	
7758	31678	
7759	31659	
7760	31631	
7761	31607	
7762	31591	
7763	31584	
7764	31582	
7765	31583	
7766	31584	
7767	31585	
7768	31581	
7769	31569	
7770	31552	
7771	31534	
7772	31526	
7773	31532	
7774	31544	
7775	31552	
7776	31544	
7777	31522	
7778	31499	
7779	31491	
7780	31510	
7781	31551	
7782	31595	
7783	31620	
7784	31611	
7785	31570	
7786	31518	
7787	31477	
7788	31464	
7789	31478	
7790	31502	
7791	31519	
7792	31517	
7793	31499	
7794	31479	
7795	31470	
7796	31477	
7797	31491	
7798	31500	
7799	31494	
7800	31475	
7801	31453	
7802	31440	
7803	31440	
7804	31450	
7805	31462	
7806	31467	
7807	31464	
7808	31456	
7809	31451	
7810	31451	
7811	31458	
7812	31469	
7813	31480	
7814	31488	
7815	31495	
7816	31499	
7817	31501	
7818	31504	
7819	31512	
7820	31526	
7821	31545	
7822	31562	
7823	31566	
7824	31551	
7825	31519	
7826	31481	
7827	31455	
7828	31454	
7829	31483	
7830	31532	
7831	31587	
7832	31633	
7833	31663	
7834	31683	
7835	31702	
7836	31730	
7837	31769	
7838	31815	
7839	31859	
7840	31894	
7841	31919	
7842	31935	
7843	31950	
7844	31967	
7845	31991	
7846	32023	
7847	32064	
7848	32110	
7849	32155	
7850	32192	
7851	32213	
7852	32218	
7853	32213	
7854	32209	
7855	32219	
7856	32250	
7857	32297	
7858	32348	
7859	32390	
7860	32414	
7861	32424	
7862	32429	
7863	32441	
7864	32464	
7865	32493	
7866	32519	
7867	32531	
7868	32530	
7869	32525	
7870	32528	
7871	32542	
7872	32564	
7873	32581	
7874	32584	
7875	32574	
7876	32566	
7877	32574	
7878	32609	
7879	32663	
7880	32720	
7881	32758	
7882	32768	
7883	32755	
7884	32737	
7885	32729	
7886	32737	
7887	32752	
7888	32762	
7889	32759	
7890	32749	
7891	32743	
7892	32752	
7893	32777	
7894	32807	
7895	32825	
7896	32822	
7897	32802	
7898	32779	
7899	32767	
7900	32772	
7901	32788	
7902	32802	
7903	32806	
7904	32799	
7905	32791	
7906	32791	
7907	32804	
7908	32824	
7909	32840	
7910	32845	
7911	32838	
7912	32829	
7913	32823	
7914	32824	
7915	32829	
7916	32831	
7917	32827	
7918	32821	
7919	32820	
7920	32830	
7921	32849	
7922	32869	
7923	32881	
7924	32879	
7925	32865	
7926	32851	
7927	32846	
7928	32857	
7929	32882	
7930	32912	
7931	32936	
7932	32949	
7933	32948	
7934	32935	
7935	32919	
7936	32907	
7937	32904	
7938	32910	
7939	32923	
7940	32935	
7941	32940	
7942	32935	
7943	32926	
7944	32918	
7945	32918	
7946	32924	
7947	32929	
7948	32924	
7949	32908	
7950	32886	
7951	32873	
7952	32881	
7953	32913	
7954	32957	
7955	32994	
7956	33008	
7957	32995	
7958	32966	
7959	32937	
7960	32923	
7961	32927	
7962	32943	
7963	32959	
7964	32969	
7965	32972	
7966	32972	
7967	32973	
7968	32976	
7969	32978	
7970	32978	
7971	32980	
7972	32990	
7973	33011	
7974	33038	
7975	33060	
7976	33067	
7977	33057	
7978	33037	
7979	33018	
7980	33011	
7981	33014	
7982	33019	
7983	33016	
7984	33004	
7985	32988	
7986	32981	
7987	32990	
7988	33012	
7989	33036	
7990	33048	
7991	33044	
7992	33028	
7993	33012	
7994	33004	
7995	33003	
7996	33003	
7997	32996	
7998	32981	
7999	32967	
8000	32965	
8001	32981	
8002	33012	
8003	33043	
8004	33061	
8005	33058	
8006	33040	
8007	33022	
8008	33017	
8009	33035	
8010	33069	
8011	33105	
8012	33128	
8013	33132	
8014	33119	
8015	33098	
8016	33081	
8017	33073	
8018	33077	
8019	33087	
8020	33099	
8021	33107	
8022	33107	
8023	33101	
8024	33088	
8025	33072	
8026	33059	
8027	33053	
8028	33056	
8029	33064	
8030	33074	
8031	33081	
8032	33083	
8033	33083	
8034	33083	
8035	33086	
8036	33093	
8037	33103	
8038	33109	
8039	33110	
8040	33106	
8041	33098	
8042	33092	
8043	33094	
8044	33108	
8045	33132	
8046	33161	
8047	33186	
8048	33198	
8049	33196	
8050	33186	
8051	33179	
8052	33188	
8053	33217	
8054	33261	
8055	33311	
8056	33353	
8057	33382	
8058	33404	
8059	33427	
8060	33465	
8061	33521	
8062	33590	
8063	33659	
8064	33712	
8065	33739	
8066	33736	
8067	33711	
8068	33675	
8069	33641	
8070	33615	
8071	33599	
8072	33589	
8073	33577	
8074	33559	
8075	33533	
8076	33503	
8077	33475	
8078	33453	
8079	33440	
8080	33430	
8081	33418	
8082	33398	
8083	33368	
8084	33333	
8085	33299	
8086	33274	
8087	33263	
8088	33265	
8089	33275	
8090	33283	
8091	33281	
8092	33265	
8093	33235	
8094	33198	
8095	33162	
8096	33134	
8097	33117	
8098	33111	
8099	33112	
8100	33114	
8101	33113	
8102	33107	
8103	33099	
8104	33089	
8105	33081	
8106	33077	
8107	33075	
8108	33073	
8109	33067	
8110	33056	
8111	33040	
8112	33026	
8113	33019	
8114	33022	
8115	33031	
8116	33039	
8117	33038	
8118	33023	
8119	32997	
8120	32967	
8121	32946	
8122	32940	
8123	32955	
8124	32985	
8125	33019	
8126	33047	
8127	33059	
8128	33056	
8129	33042	
8130	33026	
8131	33013	
8132	33003	
8133	32991	
8134	32974	
8135	32953	
8136	32939	
8137	32944	
8138	32970	
8139	33012	
8140	33050	
8141	33067	
8142	33055	
8143	33021	
8144	32985	
8145	32966	
8146	32972	
8147	32997	
8148	33024	
8149	33039	
8150	33037	
8151	33024	
8152	33012	
8153	33009	
8154	33015	
8155	33025	
8156	33030	
8157	33027	
8158	33017	
8159	33004	
8160	32988	
8161	32972	
8162	32956	
8163	32942	
8164	32932	
8165	32925	
8166	32914	
8167	32889	
8168	32842	
8169	32773	
8170	32690	
8171	32608	
8172	32545	
8173	32516	
8174	32534	
8175	32612	
8176	32762	
8177	32992	
8178	33302	
8179	33693	
8180	34168	
8181	34748	
8182	35466	
8183	36348	
8184	37385	
8185	38519	
8186	39642	
8187	40628	
8188	41384	
8189	41885	
8190	42181	
8191	42370	
8192	42549	
8193	42773	
8194	43047	
8195	43340	
8196	43623	
8197	43887	
8198	44137	
8199	44378	
8200	44589	
8201	44726	
8202	44740	
8203	44609	
8204	44354	
8205	44029	
8206	43688	
8207	43347	
8208	42982	
8209	42551	
8210	42035	
8211	41457	
8212	40869	
8213	40322	
8214	39827	
8215	39357	
8216	38870	
8217	38348	
8218	37807	
8219	37288	
8220	36823	
8221	36428	
8222	36097	
8223	35825	
8224	35608	
8225	35445	
8226	35323	
8227	35208	
8228	35050	
8229	34805	
8230	34464	
8231	34066	
8232	33688	
8233	33405	
8234	33253	
8235	33203	
8236	33184	
8237	33128	
8238	33011	
8239	32863	
8240	32746	
8241	32706	
8242	32741	
8243	32809	
8244	32851	
8245	32836	
8246	32772	
8247	32704	
8248	32672	
8249	32691	
8250	32740	
8251	32779	
8252	32777	
8253	32734	
8254	32674	
8255	32630	
8256	32620	
8257	32636	
8258	32653	
8259	32651	
8260	32629	
8261	32604	
8262	32599	
8263	32620	
8264	32653	
8265	32674	
8266	32666	
8267	32631	
8268	32593	
8269	32575	
8270	32586	
8271	32611	
8272	32627	
8273	32617	
8274	32585	
8275	32553	
8276	32545	
8277	32567	
8278	32607	
8279	32639	
8280	32644	
8281	32622	
8282	32590	
8283	32568	
8284	32568	
8285	32583	
8286	32599	
8287	32604	
8288	32597	
8289	32587	
8290	32586	
8291	32596	
8292	32609	
8293	32614	
8294	32604	
8295	32586	
8296	32571	
8297	32571	
8298	32589	
8299	32617	
8300	32644	
8301	32660	
8302	32663	
8303	32655	
8304	32642	
8305	32630	
8306	32622	
8307	32621	
8308	32627	
8309	32640	
8310	32655	
8311	32666	
8312	32668	
8313	32661	
8314	32650	
8315	32643	
8316	32643	
8317	32649	
8318	32656	
8319	32656	
8320	32647	
8321	32631	
8322	32616	
8323	32605	
8324	32601	
8325	32602	
8326	32607	
8327	32616	
8328	32630	
8329	32646	
8330	32659	
8331	32662	
8332	32651	
8333	32630	
8334	32607	
8335	32593	
8336	32597	
8337	32617	
8338	32644	
8339	32667	
8340	32679	
8341	32677	
8342	32665	
8343	32647	
8344	32629	
8345	32614	
8346	32606	
8347	32605	
8348	32611	
8349	32618	
8350	32619	
8351	32610	
8352	32594	
8353	32578	
8354	32575	
8355	32589	
8356	32616	
8357	32644	
8358	32657	
8359	32648	
8360	32621	
8361	32589	
8362	32565	
8363	32557	
8364	32564	
8365	32578	
8366	32589	
8367	32592	
8368	32589	
8369	32586	
8370	32589	
8371	32599	
8372	32614	
8373	32630	
8374	32641	
8375	32644	
8376	32638	
8377	32626	
8378	32610	
8379	32596	
8380	32587	
8381	32584	
8382	32588	
8383	32596	
8384	32605	
8385	32613	
8386	32622	
8387	32632	
8388	32641	
8389	32646	
8390	32640	
8391	32621	
8392	32591	
8393	32557	
8394	32531	
8395	32520	
8396	32525	
8397	32543	
8398	32565	
8399	32584	
8400	32595	
8401	32596	
8402	32586	
8403	32567	
8404	32542	
8405	32516	
8406	32494	
8407	32478	
8408	32468	
8409	32463	
8410	32462	
8411	32462	
8412	32462	
8413	32462	
8414	32460	
8415	32454	
8416	32442	
8417	32425	
8418	32411	
8419	32405	
8420	32411	
8421	32426	
8422	32441	
8423	32444	
8424	32430	
8425	32402	
8426	32373	
8427	32353	
8428	32348	
8429	32352	
8430	32354	
8431	32344	
8432	32322	
8433	32296	
8434	32278	
8435	32276	
8436	32284	
8437	32293	
8438	32294	
8439	32285	
8440	32278	
8441	32282	
8442	32301	
8443	32324	
8444	32336	
8445	32324	
8446	32287	
8447	32242	
8448	32208	
8449	32201	
8450	32223	
8451	32260	
8452	32296	
8453	32319	
8454	32325	
8455	32324	
8456	32324	
8457	32330	
8458	32340	
8459	32346	
8460	32345	
8461	32337	
8462	32330	
8463	32332	
8464	32346	
8465	32366	
8466	32383	
8467	32388	
8468	32384	
8469	32381	
8470	32391	
8471	32420	
8472	32464	
8473	32510	
8474	32544	
8475	32562	
8476	32570	
8477	32579	
8478	32597	
8479	32626	
8480	32658	
8481	32680	
8482	32689	
8483	32688	
8484	32688	
8485	32701	
8486	32732	
8487	32773	
8488	32812	
8489	32838	
8490	32848	
8491	32846	
8492	32846	
8493	32857	
8494	32882	
8495	32917	
8496	32951	
8497	32977	
8498	32994	
8499	33006	
8500	33021	
8501	33041	
8502	33064	
8503	33084	
8504	33094	
8505	33096	
8506	33096	
8507	33100	
8508	33113	
8509	33133	
8510	33152	
8511	33164	
8512	33169	
8513	33172	
8514	33183	
8515	33203	
8516	33231	
8517	33255	
8518	33266	
8519	33261	
8520	33246	
8521	33232	
8522	33227	
8523	33232	
8524	33241	
8525	33246	
8526	33245	
8527	33240	
8528	33239	
8529	33247	
8530	33262	
8531	33277	
8532	33283	
8533	33277	
8534	33264	
8535	33254	
8536	33254	
8537	33265	
8538	33279	
8539	33288	
8540	33287	
8541	33278	
8542	33269	
8543	33268	
8544	33276	
8545	33286	
8546	33291	
8547	33287	
8548	33277	
8549	33267	
8550	33264	
8551	33267	
8552	33272	
8553	33276	
8554	33279	
8555	33283	
8556	33293	
8557	33307	
8558	33317	
8559	33315	
8560	33299	
8561	33275	
8562	33258	
8563	33260	
8564	33280	
8565	33306	
8566	33319	
8567	33311	
8568	33287	
8569	33270	
8570	33281	
8571	33325	
8572	33387	
8573	33436	
8574	33447	
8575	33415	
8576	33358	
8577	33306	
8578	33283	
8579	33295	
8580	33328	
8581	33356	
8582	33363	
8583	33346	
8584	33316	
8585	33292	
8586	33288	
8587	33307	
8588	33343	
8589	33383	
8590	33415	
8591	33433	
8592	33434	
8593	33424	
8594	33408	
8595	33391	
8596	33375	
8597	33363	
8598	33356	
8599	33356	
8600	33361	
8601	33368	
8602	33371	
8603	33363	
8604	33345	
8605	33325	
8606	33317	
8607	33330	
8608	33363	
8609	33405	
8610	33436	
8611	33445	
8612	33431	
8613	33408	
8614	33395	
8615	33404	
8616	33433	
8617	33467	
8618	33488	
8619	33484	
8620	33458	
8621	33422	
8622	33392	
8623	33377	
8624	33380	
8625	33392	
8626	33404	
8627	33406	
8628	33398	
8629	33386	
8630	33380	
8631	33390	
8632	33414	
8633	33445	
8634	33470	
8635	33478	
8636	33467	
8637	33444	
8638	33422	
8639	33411	
8640	33412	
8641	33417	
8642	33416	
8643	33403	
8644	33384	
8645	33370	
8646	33370	
8647	33385	
8648	33410	
8649	33433	
8650	33447	
8651	33451	
8652	33448	
8653	33443	
8654	33438	
8655	33435	
8656	33434	
8657	33437	
8658	33443	
8659	33448	
8660	33449	
8661	33446	
8662	33441	
8663	33440	
8664	33446	
8665	33458	
8666	33468	
8667	33467	
8668	33454	
8669	33436	
8670	33426	
8671	33432	
8672	33455	
8673	33485	
8674	33507	
8675	33512	
8676	33500	
8677	33480	
8678	33464	
8679	33453	
8680	33446	
8681	33436	
8682	33419	
8683	33403	
8684	33396	
8685	33410	
8686	33444	
8687	33489	
8688	33530	
8689	33557	
8690	33570	
8691	33578	
8692	33594	
8693	33628	
8694	33677	
8695	33735	
8696	33794	
8697	33850	
8698	33906	
8699	33960	
8700	34005	
8701	34031	
8702	34032	
8703	34008	
8704	33973	
8705	33940	
8706	33921	
8707	33915	
8708	33912	
8709	33901	
8710	33876	
8711	33844	
8712	33815	
8713	33797	
8714	33789	
8715	33780	
8716	33764	
8717	33739	
8718	33712	
8719	33690	
8720	33675	
8721	33664	
8722	33648	
8723	33622	
8724	33593	
8725	33568	
8726	33554	
8727	33551	
8728	33551	
8729	33546	
8730	33535	
8731	33522	
8732	33513	
8733	33509	
8734	33503	
8735	33488	
8736	33459	
8737	33420	
8738	33385	
8739	33368	
8740	33374	
8741	33397	
8742	33421	
8743	33430	
8744	33417	
8745	33387	
8746	33353	
8747	33328	
8748	33319	
8749	33321	
8750	33328	
8751	33331	
8752	33332	
8753	33334	
8754	33341	
8755	33352	
8756	33363	
8757	33366	
8758	33356	
8759	33335	
8760	33310	
8761	33288	
8762	33275	
8763	33274	
8764	33281	
8765	33290	
8766	33294	
8767	33291	
8768	33282	
8769	33273	
8770	33272	
8771	33284	
8772	33305	
8773	33326	
8774	33338	
8775	33332	
8776	33312	
8777	33286	
8778	33268	
8779	33263	
8780	33274	
8781	33295	
8782	33317	
8783	33336	
8784	33345	
8785	33343	
8786	33330	
8787	33313	
8788	33295	
8789	33284	
8790	33281	
8791	33283	
8792	33287	
8793	33287	
8794	33284	
8795	33280	
8796	33282	
8797	33291	
8798	33304	
8799	33314	
8800	33314	
8801	33302	
8802	33279	
8803	33245	
8804	33199	
8805	33138	
8806	33056	
8807	32957	
8808	32853	
8809	32766	
8810	32724	
8811	32750	
8812	32856	
8813	33043	
8814	33302	
8815	33630	
8816	34031	
8817	34531	
8818	35164	
8819	35962	
8820	36931	
8821	38034	
8822	39187	
8823	40283	
8824	41221	
8825	41939	
8826	42439	
8827	42769	
8828	43006	
8829	43217	
8830	43443	
8831	43698	
8832	43979	
8833	44280	
8834	44592	
8835	44901	
8836	45178	
8837	45382	
8838	45466	
8839	45407	
8840	45215	
8841	44933	
8842	44614	
8843	44286	
8844	43939	
8845	43532	
8846	43038	
8847	42465	
8848	41863	
8849	41286	
8850	40761	
8851	40266	
8852	39757	
8853	39204	
8854	38618	
8855	38045	
8856	37535	
8857	37106	
8858	36744	
8859	36425	
8860	36148	
8861	35933	
8862	35793	
8863	35699	
8864	35579	
8865	35355	
8866	35003	
8867	34571	
8868	34158	
8869	33851	
8870	33679	
8871	33611	
8872	33584	
8873	33539	
8874	33452	
8875	33332	
8876	33206	
8877	33105	
8878	33050	
8879	33046	
8880	33075	
8881	33107	
8882	33113	
8883	33087	
8884	33047	
8885	33022	
8886	33027	
8887	33051	
8888	33057	
8889	33019	
8890	32940	
8891	32859	
8892	32820	
8893	32839	
8894	32893	
8895	32933	
8896	32923	
8897	32867	
8898	32805	
8899	32783	
8900	32812	
8901	32865	
8902	32897	
8903	32881	
8904	32831	
8905	32787	
8906	32784	
8907	32820	
8908	32861	
8909	32867	
8910	32826	
8911	32763	
8912	32724	
8913	32738	
8914	32795	
8915	32854	
8916	32879	
8917	32859	
8918	32821	
8919	32800	
8920	32815	
8921	32853	
8922	32878	
8923	32868	
8924	32826	
8925	32781	
8926	32766	
8927	32789	
8928	32832	
8929	32864	
8930	32864	
8931	32835	
8932	32801	
8933	32784	
8934	32789	
8935	32802	
8936	32806	
8937	32794	
8938	32775	
8939	32766	
8940	32775	
8941	32797	
8942	32817	
8943	32824	
8944	32819	
8945	32817	
8946	32830	
8947	32857	
8948	32887	
8949	32902	
8950	32895	
8951	32873	
8952	32855	
8953	32856	
8954	32879	
8955	32911	
8956	32937	
8957	32947	
8958	32943	
8959	32934	
8960	32932	
8961	32941	
8962	32957	
8963	32972	
8964	32981	
8965	32979	
8966	32963	
8967	32935	
8968	32898	
8969	32860	
8970	32834	
8971	32830	
8972	32854	
8973	32897	
8974	32943	
8975	32975	
8976	32982	
8977	32967	
8978	32937	
8979	32906	
8980	32877	
8981	32851	
8982	32829	
8983	32812	
8984	32805	
8985	32811	
8986	32826	
8987	32842	
8988	32848	
8989	32844	
8990	32837	
8991	32839	
8992	32853	
8993	32876	
8994	32891	
8995	32887	
8996	32861	
8997	32825	
8998	32797	
8999	32791	
9000	32808	
9001	32833	
9002	32852	
9003	32852	
9004	32839	
9005	32823	
9006	32818	
9007	32825	
9008	32839	
9009	32847	
9010	32842	
9011	32825	
9012	32804	
9013	32791	
9014	32791	
9015	32804	
9016	32821	
9017	32834	
9018	32837	
9019	32829	
9020	32812	
9021	32793	
9022	32775	
9023	32762	
9024	32756	
9025	32755	
9026	32758	
9027	32762	
9028	32765	
9029	32767	
9030	32768	
9031	32768	
9032	32767	
9033	32764	
9034	32759	
9035	32751	
9036	32744	
9037	32737	
9038	32732	
9039	32725	
9040	32715	
9041	32699	
9042	32682	
9043	32669	
9044	32665	
9045	32673	
9046	32686	
9047	32695	
9048	32692	
9049	32675	
9050	32647	
9051	32620	
9052	32603	
9053	32598	
9054	32602	
9055	32609	
9056	32615	
9057	32619	
9058	32624	
9059	32634	
9060	32648	
9061	32658	
9062	32659	
9063	32647	
9064	32627	
9065	32609	
9066	32602	
9067	32607	
9068	32617	
9069	32618	
9070	32604	
9071	32576	
9072	32545	
9073	32526	
9074	32525	
9075	32537	
9076	32547	
9077	32543	
9078	32518	
9079	32484	
9080	32457	
9081	32451	
9082	32467	
9083	32492	
9084	32505	
9085	32493	
9086	32456	
9087	32408	
9088	32367	
9089	32347	
9090	32353	
9091	32377	
9092	32406	
9093	32430	
9094	32443	
9095	32446	
9096	32438	
9097	32418	
9098	32388	
9099	32352	
9100	32320	
9101	32304	
9102	32316	
9103	32355	
9104	32409	
9105	32460	
9106	32491	
9107	32497	
9108	32486	
9109	32474	
9110	32477	
9111	32504	
9112	32548	
9113	32593	
9114	32623	
9115	32630	
9116	32616	
9117	32597	
9118	32588	
9119	32600	
9120	32633	
9121	32676	
9122	32714	
9123	32739	
9124	32747	
9125	32746	
9126	32747	
9127	32755	
9128	32772	
9129	32792	
9130	32812	
9131	32831	
9132	32851	
9133	32876	
9134	32905	
9135	32933	
9136	32952	
9137	32959	
9138	32958	
9139	32960	
9140	32975	
9141	33004	
9142	33036	
9143	33055	
9144	33054	
9145	33036	
9146	33017	
9147	33015	
9148	33036	
9149	33070	
9150	33098	
9151	33103	
9152	33087	
9153	33065	
9154	33058	
9155	33080	
9156	33124	
9157	33174	
9158	33211	
9159	33230	
9160	33235	
9161	33237	
9162	33240	
9163	33240	
9164	33227	
9165	33198	
9166	33162	
9167	33137	
9168	33134	
9169	33154	
9170	33182	
9171	33199	
9172	33198	
9173	33187	
9174	33180	
9175	33191	
9176	33214	
9177	33233	
9178	33229	
9179	33198	
9180	33156	
9181	33130	
9182	33138	
9183	33180	
9184	33234	
9185	33268	
9186	33261	
9187	33216	
9188	33152	
9189	33099	
9190	33075	
9191	33081	
9192	33105	
9193	33131	
9194	33151	
9195	33164	
9196	33178	
9197	33196	
9198	33217	
9199	33236	
9200	33249	
9201	33255	
9202	33256	
9203	33256	
9204	33251	
9205	33237	
9206	33215	
9207	33191	
9208	33177	
9209	33181	
9210	33203	
9211	33233	
9212	33254	
9213	33255	
9214	33234	
9215	33199	
9216	33167	
9217	33149	
9218	33148	
9219	33160	
9220	33178	
9221	33193	
9222	33201	
9223	33199	
9224	33189	
9225	33175	
9226	33162	
9227	33159	
9228	33166	
9229	33181	
9230	33195	
9231	33198	
9232	33189	
9233	33170	
9234	33155	
9235	33150	
9236	33157	
9237	33169	
9238	33176	
9239	33171	
9240	33155	
9241	33138	
9242	33128	
9243	33128	
9244	33136	
9245	33146	
9246	33153	
9247	33156	
9248	33158	
9249	33162	
9250	33170	
9251	33178	
9252	33181	
9253	33175	
9254	33157	
9255	33136	
9256	33120	
9257	33122	
9258	33143	
9259	33176	
9260	33205	
9261	33214	
9262	33199	
9263	33169	
9264	33140	
9265	33126	
9266	33131	
9267	33143	
9268	33146	
9269	33128	
9270	33096	
9271	33067	
9272	33063	
9273	33091	
9274	33141	
9275	33190	
9276	33215	
9277	33209	
9278	33182	
9279	33154	
9280	33140	
9281	33141	
9282	33144	
9283	33134	
9284	33107	
9285	33070	
9286	33040	
9287	33030	
9288	33042	
9289	33068	
9290	33096	
9291	33119	
9292	33133	
9293	33141	
9294	33146	
9295	33147	
9296	33145	
9297	33143	
9298	33146	
9299	33156	
9300	33170	
9301	33178	
9302	33167	
9303	33135	
9304	33090	
9305	33055	
9306	33049	
9307	33079	
9308	33131	
9309	33179	
9310	33199	
9311	33180	
9312	33134	
9313	33086	
9314	33058	
9315	33060	
9316	33082	
9317	33106	
9318	33115	
9319	33105	
9320	33085	
9321	33072	
9322	33078	
9323	33105	
9324	33145	
9325	33187	
9326	33223	
9327	33250	
9328	33270	
9329	33289	
9330	33311	
9331	33337	
9332	33373	
9333	33421	
9334	33481	
9335	33547	
9336	33604	
9337	33638	
9338	33639	
9339	33610	
9340	33567	
9341	33529	
9342	33512	
9343	33517	
9344	33533	
9345	33542	
9346	33533	
9347	33505	
9348	33466	
9349	33428	
9350	33395	
9351	33368	
9352	33345	
9353	33324	
9354	33308	
9355	33298	
9356	33292	
9357	33283	
9358	33266	
9359	33239	
9360	33206	
9361	33180	
9362	33167	
9363	33168	
9364	33174	
9365	33169	
9366	33146	
9367	33104	
9368	33057	
9369	33019	
9370	32998	
9371	32996	
9372	33003	
9373	33008	
9374	33004	
9375	32991	
9376	32970	
9377	32945	
9378	32921	
9379	32902	
9380	32894	
9381	32904	
9382	32931	
9383	32967	
9384	32997	
9385	33005	
9386	32986	
9387	32949	
9388	32911	
9389	32891	
9390	32893	
9391	32908	
9392	32917	
9393	32906	
9394	32874	
9395	32835	
9396	32807	
9397	32804	
9398	32826	
9399	32859	
9400	32886	
9401	32896	
9402	32887	
9403	32868	
9404	32850	
9405	32839	
9406	32838	
9407	32841	
9408	32845	
9409	32847	
9410	32847	
9411	32845	
9412	32840	
9413	32831	
9414	32819	
9415	32806	
9416	32795	
9417	32790	
9418	32791	
9419	32795	
9420	32800	
9421	32802	
9422	32801	
9423	32802	
9424	32810	
9425	32824	
9426	32843	
9427	32861	
9428	32870	
9429	32869	
9430	32858	
9431	32845	
9432	32837	
9433	32836	
9434	32840	
9435	32842	
9436	32832	
9437	32806	
9438	32765	
9439	32712	
9440	32656	
9441	32599	
9442	32541	
9443	32481	
9444	32420	
9445	32371	
9446	32351	
9447	32383	
9448	32482	
9449	32654	
9450	32893	
9451	33196	
9452	33572	
9453	34049	
9454	34668	
9455	35463	
9456	36441	
9457	37557	
9458	38719	
9459	39804	
9460	40703	
9461	41348	
9462	41740	
9463	41934	
9464	42020	
9465	42082	
9466	42174	
9467	42314	
9468	42494	
9469	42694	
9470	42899	
9471	43093	
9472	43256	
9473	43360	
9474	43368	
9475	43256	
9476	43023	
9477	42696	
9478	42322	
9479	41937	
9480	41543	
9481	41113	
9482	40616	
9483	40053	
9484	39464	
9485	38910	
9486	38430	
9487	38012	
9488	37601	
9489	37144	
9490	36630	
9491	36105	
9492	35637	
9493	35277	
9494	35031	
9495	34866	
9496	34746	
9497	34655	
9498	34589	
9499	34535	
9500	34452	
9501	34286	
9502	34002	
9503	33622	
9504	33225	
9505	32905	
9506	32723	
9507	32673	
9508	32688	
9509	32690	
9510	32641	
9511	32555	
9512	32483	
9513	32467	
9514	32509	
9515	32573	
9516	32614	
9517	32609	
9518	32570	
9519	32531	
9520	32518	
9521	32531	
9522	32550	
9523	32547	
9524	32511	
9525	32457	
9526	32413	
9527	32402	
9528	32428	
9529	32474	
9530	32511	
9531	32516	
9532	32485	
9533	32436	
9534	32394	
9535	32379	
9536	32394	
9537	32426	
9538	32452	
9539	32456	
9540	32437	
9541	32405	
9542	32376	
9543	32361	
9544	32363	
9545	32377	
9546	32397	
9547	32420	
9548	32443	
9549	32460	
9550	32466	
9551	32455	
9552	32430	
9553	32403	
9554	32388	
9555	32393	
9556	32413	
9557	32432	
9558	32439	
9559	32431	
9560	32420	
9561	32424	
9562	32447	
9563	32478	
9564	32493	
9565	32476	
9566	32428	
9567	32373	
9568	32337	
9569	32336	
9570	32358	
9571	32379	
9572	32377	
9573	32352	
9574	32326	
9575	32323	
9576	32353	
9577	32398	
9578	32428	
9579	32422	
9580	32384	
9581	32342	
9582	32329	
9583	32357	
9584	32406	
9585	32441	
9586	32437	
9587	32394	
9588	32339	
9589	32306	
9590	32310	
9591	32340	
9592	32366	
9593	32364	
9594	32334	
9595	32297	
9596	32281	
9597	32298	
9598	32336	
9599	32368	
9600	32375	
9601	32355	
9602	32325	
9603	32309	
9604	32318	
9605	32345	
9606	32369	
9607	32374	
9608	32357	
9609	32330	
9610	32311	
9611	32309	
9612	32320	
9613	32334	
9614	32343	
9615	32345	
9616	32348	
9617	32356	
9618	32367	
9619	32372	
9620	32362	
9621	32339	
9622	32314	
9623	32304	
9624	32318	
9625	32349	
9626	32381	
9627	32394	
9628	32379	
9629	32345	
9630	32310	
9631	32291	
9632	32293	
9633	32308	
9634	32323	
9635	32332	
9636	32337	
9637	32347	
9638	32365	
9639	32387	
9640	32397	
9641	32386	
9642	32355	
9643	32319	
9644	32298	
9645	32304	
9646	32332	
9647	32363	
9648	32380	
9649	32371	
9650	32344	
9651	32313	
9652	32291	
9653	32283	
9654	32280	
9655	32277	
9656	32269	
9657	32261	
9658	32260	
9659	32268	
9660	32283	
9661	32296	
9662	32301	
9663	32297	
9664	32288	
9665	32277	
9666	32267	
9667	32256	
9668	32243	
9669	32232	
9670	32229	
9671	32240	
9672	32266	
9673	32296	
9674	32318	
9675	32322	
9676	32310	
9677	32292	
9678	32280	
9679	32282	
9680	32292	
9681	32298	
9682	32289	
9683	32264	
9684	32232	
9685	32208	
9686	32202	
9687	32214	
9688	32232	
9689	32242	
9690	32235	
9691	32211	
9692	32180	
9693	32153	
9694	32137	
9695	32133	
9696	32136	
9697	32141	
9698	32144	
9699	32143	
9700	32140	
9701	32136	
9702	32131	
9703	32124	
9704	32113	
9705	32095	
9706	32072	
9707	32044	
9708	32014	
9709	31987	
9710	31970	
9711	31968	
9712	31983	
9713	32010	
9714	32036	
9715	32049	
9716	32043	
9717	32021	
9718	31997	
9719	31988	
9720	31999	
9721	32026	
9722	32050	
9723	32053	
9724	32028	
9725	31985	
9726	31945	
9727	31926	
9728	31934	
9729	31959	
9730	31983	
9731	31993	
9732	31989	
9733	31982	
9734	31983	
9735	31995	
9736	32011	
9737	32022	
9738	32025	
9739	32027	
9740	32037	
9741	32063	
9742	32096	
9743	32121	
9744	32126	
9745	32108	
9746	32082	
9747	32067	
9748	32080	
9749	32121	
9750	32174	
9751	32222	
9752	32253	
9753	32271	
9754	32287	
9755	32315	
9756	32356	
9757	32403	
9758	32446	
9759	32477	
9760	32498	
9761	32514	
9762	32527	
9763	32538	
9764	32543	
9765	32542	
9766	32541	
9767	32549	
9768	32573	
9769	32612	
9770	32654	
9771	32688	
9772	32704	
9773	32706	
9774	32703	
9775	32707	
9776	32724	
9777	32751	
9778	32777	
9779	32791	
9780	32790	
9781	32780	
9782	32771	
9783	32770	
9784	32780	
9785	32797	
9786	32814	
9787	32826	
9788	32832	
9789	32836	
9790	32841	
9791	32848	
9792	32855	
9793	32858	
9794	32857	
9795	32851	
9796	32845	
9797	32843	
9798	32847	
9799	32854	
9800	32857	
9801	32853	
9802	32841	
9803	32828	
9804	32823	
9805	32830	
9806	32849	
9807	32869	
9808	32880	
9809	32876	
9810	32859	
9811	32839	
9812	32828	
9813	32830	
9814	32843	
9815	32856	
9816	32864	
9817	32865	
9818	32864	
9819	32868	
9820	32878	
9821	32890	
9822	32896	
9823	32892	
9824	32880	
9825	32865	
9826	32854	
9827	32850	
9828	32847	
9829	32840	
9830	32829	
9831	32815	
9832	32806	
9833	32807	
9834	32814	
9835	32820	
9836	32818	
9837	32808	
9838	32798	
9839	32796	
9840	32807	
9841	32824	
9842	32838	
9843	32839	
9844	32826	
9845	32809	
9846	32800	
9847	32810	
9848	32836	
9849	32866	
9850	32886	
9851	32886	
9852	32871	
9853	32850	
9854	32836	
9855	32836	
9856	32847	
9857	32860	
9858	32867	
9859	32862	
9860	32849	
9861	32832	
9862	32816	
9863	32808	
9864	32806	
9865	32811	
9866	32818	
9867	32822	
9868	32822	
9869	32816	
9870	32809	
9871	32808	
9872	32816	
9873	32834	
9874	32856	
9875	32873	
9876	32878	
9877	32868	
9878	32848	
9879	32828	
9880	32814	
9881	32808	
9882	32806	
9883	32806	
9884	32806	
9885	32808	
9886	32816	
9887	32828	
9888	32838	
9889	32839	
9890	32828	
9891	32809	
9892	32792	
9893	32786	
9894	32794	
9895	32809	
9896	32821	
9897	32819	
9898	32804	
9899	32784	
9900	32771	
9901	32769	
9902	32777	
9903	32785	
9904	32785	
9905	32778	
9906	32770	
9907	32770	
9908	32785	
9909	32812	
9910	32842	
9911	32864	
9912	32872	
9913	32865	
9914	32848	
9915	32827	
9916	32808	
9917	32794	
9918	32788	
9919	32789	
9920	32795	
9921	32802	
9922	32806	
9923	32803	
9924	32794	
9925	32785	
9926	32782	
9927	32791	
9928	32810	
9929	32832	
9930	32849	
9931	32853	
9932	32846	
9933	32832	
9934	32818	
9935	32810	
9936	32808	
9937	32810	
9938	32813	
9939	32814	
9940	32810	
9941	32804	
9942	32796	
9943	32789	
9944	32786	
9945	32789	
9946	32799	
9947	32813	
9948	32826	
9949	32833	
9950	32830	
9951	32816	
9952	32796	
9953	32778	
9954	32767	
9955	32767	
9956	32776	
9957	32792	
9958	32813	
9959	32835	
9960	32857	
9961	32876	
9962	32892	
9963	32905	
9964	32918	
9965	32935	
9966	32961	
9967	33000	
9968	33050	
9969	33105	
9970	33156	
9971	33195	
9972	33218	
9973	33225	
9974	33221	
9975	33213	
9976	33205	
9977	33199	
9978	33194	
9979	33187	
9980	33177	
9981	33164	
9982	33150	
9983	33134	
9984	33117	
9985	33094	
9986	33061	
9987	33019	
9988	32972	
9989	32927	
9990	32894	
9991	32877	
9992	32873	
9993	32874	
9994	32872	
9995	32863	
9996	32851	
9997	32843	
9998	32845	
9999	32853	
10000	32859	
10001	32853	
10002	32832	
10003	32800	
10004	32771	
10005	32752	
10006	32746	
10007	32745	
10008	32739	
10009	32723	
10010	32699	
10011	32675	
10012	32657	
10013	32645	
10014	32634	
10015	32619	
10016	32600	
10017	32583	
10018	32576	
10019	32583	
10020	32599	
10021	32614	
10022	32619	
10023	32611	
10024	32596	
10025	32581	
10026	32573	
10027	32570	
10028	32568	
10029	32562	
10030	32549	
10031	32532	
10032	32517	
10033	32507	
10034	32507	
10035	32517	
10036	32535	
10037	32558	
10038	32580	
10039	32595	
10040	32594	
10041	32575	
10042	32540	
10043	32499	
10044	32464	
10045	32442	
10046	32434	
10047	32433	
