# OpenSignals Text File Format
# {"00:80:E1:26:9E:1A":{"sensor":["ECG"],"device name":"00:80:E1:26:9E:1A","column":["timestamp","ECG"],"sync interval":2,"time":"11:49:47","comments":"","keywords":"","device connection":"BLE00:80:E1:26:9E:1A","channels":[0],"date":"2025-06-09","mode":0,"digital IO":[],"firmware version":256,"device":"cardiobanplux","position":0,"sampling rate":1000,"label":["ECG"],"resolution":[16],"special":[{}],"sleeve color":["UNKNOWN"]}}
# EndOfHeader
1749449987989	-0.9870147	
1749449987990	-0.9799957	
1749449987991	-0.97229004	
1749449987992	-0.9661102	
1749449987993	-0.9611511	
1749449987994	-0.95458984	
1749449987995	-0.9435272	
1749449987996	-0.9298706	
1749449987997	-0.9211731	
1749449987998	-0.9209442	
1749449987999	-0.9248352	
1749449988000	-0.9226227	
1749449988001	-0.9095764	
1749449988002	-0.8908844	
1749449988003	-0.8783722	
1749449988004	-0.88119507	
1749449988005	-0.90049744	
1749449988006	-0.92681885	
1749449988007	-0.94581604	
1749449988008	-0.9466553	
1749449988009	-0.9309387	
1749449988010	-0.9138489	
1749449988011	-0.91064453	
1749449988012	-0.9246063	
1749449988013	-0.9440613	
1749449988014	-0.95436096	
1749449988015	-0.94810486	
1749449988016	-0.93055725	
1749449988017	-0.9132385	
1749449988018	-0.907135	
1749449988019	-0.9149933	
1749449988020	-0.9295654	
1749449988021	-0.93818665	
1749449988022	-0.9334564	
1749449988023	-0.92071533	
1749449988024	-0.91148376	
1749449988025	-0.91415405	
1749449988026	-0.9260559	
1749449988027	-0.93948364	
1749449988028	-0.94703674	
1749449988029	-0.94703674	
1749449988030	-0.9425354	
1749449988031	-0.9391022	
1749449988032	-0.94062805	
1749449988033	-0.94581604	
1749449988034	-0.94932556	
1749449988035	-0.9475708	
1749449988036	-0.9436798	
1749449988037	-0.94215393	
1749449988038	-0.9437561	
1749449988039	-0.94291687	
1749449988040	-0.9359741	
1749449988041	-0.92559814	
1749449988042	-0.9197235	
1749449988043	-0.9239197	
1749449988044	-0.9377289	
1749449988045	-0.95474243	
1749449988046	-0.9664154	
1749449988047	-0.96733093	
1749449988048	-0.9576416	
1749449988049	-0.9463501	
1749449988050	-0.94200134	
1749449988051	-0.94696045	
1749449988052	-0.9542084	
1749449988053	-0.9561157	
1749449988054	-0.95047	
1749449988055	-0.94055176	
1749449988056	-0.93070984	
1749449988057	-0.92407227	
1749449988058	-0.922699	
1749449988059	-0.92453	
1749449988060	-0.9249115	
1749449988061	-0.91911316	
1749449988062	-0.90934753	
1749449988063	-0.9023285	
1749449988064	-0.90415955	
1749449988065	-0.91415405	
1749449988066	-0.927124	
1749449988067	-0.9364319	
1749449988068	-0.9358978	
1749449988069	-0.923996	
1749449988070	-0.905838	
1749449988071	-0.89172363	
1749449988072	-0.88912964	
1749449988073	-0.8972168	
1749449988074	-0.90805054	
1749449988075	-0.91430664	
1749449988076	-0.9132385	
1749449988077	-0.90812683	
1749449988078	-0.90301514	
1749449988079	-0.9010315	
1749449988080	-0.9024811	
1749449988081	-0.90538025	
1749449988082	-0.90766907	
1749449988083	-0.90911865	
1749449988084	-0.9122467	
1749449988085	-0.9189606	
1749449988086	-0.9284973	
1749449988087	-0.9359741	
1749449988088	-0.938797	
1749449988089	-0.9376526	
1749449988090	-0.9364319	
1749449988091	-0.93704224	
1749449988092	-0.93948364	
1749449988093	-0.9428406	
1749449988094	-0.94566345	
1749449988095	-0.9462738	
1749449988096	-0.94429016	
1749449988097	-0.9422302	
1749449988098	-0.94169617	
1749449988099	-0.94184875	
1749449988100	-0.9384155	
1749449988101	-0.93170166	
1749449988102	-0.9262085	
1749449988103	-0.9275055	
1749449988104	-0.9360504	
1749449988105	-0.9474945	
1749449988106	-0.9567261	
1749449988107	-0.9605408	
1749449988108	-0.9585571	
1749449988109	-0.9536743	
1749449988110	-0.95199585	
1749449988111	-0.95687866	
1749449988112	-0.9661865	
1749449988113	-0.9718323	
1749449988114	-0.9701538	
1749449988115	-0.96435547	
1749449988116	-0.9616852	
1749449988117	-0.9653473	
1749449988118	-0.973053	
1749449988119	-0.9801483	
1749449988120	-0.9816742	
1749449988121	-0.97602844	
1749449988122	-0.9651947	
1749449988123	-0.95840454	
1749449988124	-0.962677	
1749449988125	-0.97702026	
1749449988126	-0.9893798	
1749449988127	-0.9885407	
1749449988128	-0.9738922	
1749449988129	-0.95474243	
1749449988130	-0.942688	
1749449988131	-0.94337463	
1749449988132	-0.9550476	
1749449988133	-0.96824646	
1749449988134	-0.9727478	
1749449988135	-0.963974	
1749449988136	-0.9500885	
1749449988137	-0.94299316	
1749449988138	-0.947876	
1749449988139	-0.95710754	
1749449988140	-0.95954895	
1749449988141	-0.9523773	
1749449988142	-0.94306946	
1749449988143	-0.9424591	
1749449988144	-0.95458984	
1749449988145	-0.9775544	
1749449988146	-1.0034943	
1749449988147	-1.0243225	
1749449988148	-1.0325623	
1749449988149	-1.0286713	
1749449988150	-1.0186768	
1749449988151	-1.0076904	
1749449988152	-0.9954071	
1749449988153	-0.97953796	
1749449988154	-0.96572876	
1749449988155	-0.9627533	
1749449988156	-0.9754944	
1749449988157	-0.99624634	
1749449988158	-1.0125732	
1749449988159	-1.0137177	
1749449988160	-0.9961701	
1749449988161	-0.9648895	
1749449988162	-0.93330383	
1749449988163	-0.9182739	
1749449988164	-0.9247589	
1749449988165	-0.9423828	
1749449988166	-0.9526825	
1749449988167	-0.9477997	
1749449988168	-0.93315125	
1749449988169	-0.9210968	
1749449988170	-0.9196472	
1749449988171	-0.9287262	
1749449988172	-0.94207764	
1749449988173	-0.9497833	
1749449988174	-0.94551086	
1749449988175	-0.9315491	
1749449988176	-0.91934204	
1749449988177	-0.91812134	
1749449988178	-0.9275055	
1749449988179	-0.93666077	
1749449988180	-0.9363556	
1749449988181	-0.9259033	
1749449988182	-0.9135437	
1749449988183	-0.9094238	
1749449988184	-0.9194946	
1749449988185	-0.942688	
1749449988186	-0.9715271	
1749449988187	-0.9944153	
1749449988188	-1.0016632	
1749449988189	-0.9952545	
1749449988190	-0.9842681	
1749449988191	-0.9783172	
1749449988192	-0.97824097	
1749449988193	-0.9811402	
1749449988194	-0.9851838	
1749449988195	-0.9905243	
1749449988196	-0.99655145	
1749449988197	-1.0011292	
1749449988198	-1.0034943	
1749449988199	-1.0015869	
1749449988200	-0.99296564	
1749449988201	-0.97488403	
1749449988202	-0.95466614	
1749449988203	-0.9436798	
1749449988204	-0.9488678	
1749449988205	-0.96435547	
1749449988206	-0.9777832	
1749449988207	-0.9821319	
1749449988208	-0.9775544	
1749449988209	-0.9703064	
1749449988210	-0.9667969	
1749449988211	-0.97343445	
1749449988212	-0.98915094	
1749449988213	-1.0053253	
1749449988214	-1.0093689	
1749449988215	-0.99761957	
1749449988216	-0.97877496	
1749449988217	-0.96565247	
1749449988218	-0.9641266	
1749449988219	-0.9688568	
1749449988220	-0.9726715	
1749449988221	-0.9702301	
1749449988222	-0.9624481	
1749449988223	-0.95321655	
1749449988224	-0.9510803	
1749449988225	-0.9617615	
1749449988226	-0.98228455	
1749449988227	-1.0001373	
1749449988228	-1.0032654	
1749449988229	-0.993042	
1749449988230	-0.9794617	
1749449988231	-0.97229004	
1749449988232	-0.97190857	
1749449988233	-0.9754944	
1749449988234	-0.9796142	
1749449988235	-0.9819794	
1749449988236	-0.9800721	
1749449988237	-0.9740448	
1749449988238	-0.96725464	
1749449988239	-0.9603119	
1749449988240	-0.95092773	
1749449988241	-0.9365082	
1749449988242	-0.9234619	
1749449988243	-0.92056274	
1749449988244	-0.931015	
1749449988245	-0.94680786	
1749449988246	-0.9576416	
1749449988247	-0.95840454	
1749449988248	-0.95207214	
1749449988249	-0.94688416	
1749449988250	-0.95085144	
1749449988251	-0.96855164	
1749449988252	-0.9934235	
1749449988253	-1.0112762	
1749449988254	-1.0087585	
1749449988255	-0.9877777	
1749449988256	-0.9638214	
1749449988257	-0.953598	
1749449988258	-0.9604645	
1749449988259	-0.9754944	
1749449988260	-0.9864807	
1749449988261	-0.98609924	
1749449988262	-0.97572327	
1749449988263	-0.96199036	
1749449988264	-0.95565796	
1749449988265	-0.96229553	
1749449988266	-0.97824097	
1749449988267	-0.9910583	
1749449988268	-0.99243164	
1749449988269	-0.98457336	
1749449988270	-0.97465515	
1749449988271	-0.96717834	
1749449988272	-0.9602356	
1749449988273	-0.9529114	
1749449988274	-0.94558716	
1749449988275	-0.941391	
1749449988276	-0.9422302	
1749449988277	-0.9503937	
1749449988278	-0.9628296	
1749449988279	-0.97106934	
1749449988280	-0.9651947	
1749449988281	-0.94459534	
1749449988282	-0.9233093	
1749449988283	-0.9176636	
1749449988284	-0.9333801	
1749449988285	-0.95954895	
1749449988286	-0.98106384	
1749449988287	-0.9872436	
1749449988288	-0.9794617	
1749449988289	-0.9664917	
1749449988290	-0.9600067	
1749449988291	-0.96588135	
1749449988292	-0.9786225	
1749449988293	-0.98526	
1749449988294	-0.97717285	
1749449988295	-0.9603882	
1749449988296	-0.9490967	
1749449988297	-0.95336914	
1749449988298	-0.9680939	
1749449988299	-0.98030096	
1749449988300	-0.9789276	
1749449988301	-0.9635925	
1749449988302	-0.9438324	
1749449988303	-0.9340668	
1749449988304	-0.94459534	
1749449988305	-0.9713745	
1749449988306	-0.99807745	
1749449988307	-1.0076904	
1749449988308	-1.0001373	
1749449988309	-0.9897613	
1749449988310	-0.99296564	
1749449988311	-1.0113525	
1749449988312	-1.0328674	
1749449988313	-1.0419464	
1749449988314	-1.0315704	
1749449988315	-1.0080719	
1749449988316	-0.9875488	
1749449988317	-0.98869324	
1749449988318	-1.014328	
1749449988319	-1.0479736	
1749449988320	-1.0624695	
1749449988321	-1.044693	
1749449988322	-1.0054779	
1749449988323	-0.9715271	
1749449988324	-0.9642029	
1749449988325	-0.98663336	
1749449988326	-1.0251617	
1749449988327	-1.0565186	
1749449988328	-1.062851	
1749449988329	-1.0401154	
1749449988330	-1.0054016	
1749449988331	-0.9819031	
1749449988332	-0.98228455	
1749449988333	-0.9994507	
1749449988334	-1.016922	
1749449988335	-1.0232544	
1749449988336	-1.016159	
1749449988337	-1.0010529	
1749449988338	-0.98411566	
1749449988339	-0.97343445	
1749449988340	-0.9712982	
1749449988341	-0.97366333	
1749449988342	-0.9725952	
1749449988343	-0.9664917	
1749449988344	-0.96183777	
1749449988345	-0.9654236	
1749449988346	-0.9778595	
1749449988347	-0.9944153	
1749449988348	-1.0118103	
1749449988349	-1.0257721	
1749449988350	-1.0313416	
1749449988351	-1.0228729	
1749449988352	-1.0009003	
1749449988353	-0.971756	
1749449988354	-0.94467163	
1749449988355	-0.92697144	
1749449988356	-0.92407227	
1749449988357	-0.93666077	
1749449988358	-0.9580231	
1749449988359	-0.97595215	
1749449988360	-0.9789276	
1749449988361	-0.96694946	
1749449988362	-0.949173	
1749449988363	-0.9376526	
1749449988364	-0.9384918	
1749449988365	-0.9513092	
1749449988366	-0.969162	
1749449988367	-0.9836578	
1749449988368	-0.9876251	
1749449988369	-0.98106384	
1749449988370	-0.9729004	
1749449988371	-0.9729767	
1749449988372	-0.98464966	
1749449988373	-1.000061	
1749449988374	-1.0102081	
1749449988375	-1.0092926	
1749449988376	-0.9985352	
1749449988377	-0.98258966	
1749449988378	-0.96969604	
1749449988379	-0.96710205	
1749449988380	-0.9752655	
1749449988381	-0.9862519	
1749449988382	-0.9899902	
1749449988383	-0.9841919	
1749449988384	-0.9725952	
1749449988385	-0.96191406	
1749449988386	-0.9548187	
1749449988387	-0.95428467	
1749449988388	-0.9613037	
1749449988389	-0.9729004	
1749449988390	-0.9815979	
1749449988391	-0.9809113	
1749449988392	-0.9705353	
1749449988393	-0.9551239	
1749449988394	-0.941391	
1749449988395	-0.9339905	
1749449988396	-0.936203	
1749449988397	-0.9447479	
1749449988398	-0.95085144	
1749449988399	-0.9449005	
1749449988400	-0.925827	
1749449988401	-0.90270996	
1749449988402	-0.8880615	
1749449988403	-0.88882446	
1749449988404	-0.90278625	
1749449988405	-0.9212494	
1749449988406	-0.9326935	
1749449988407	-0.9299469	
1749449988408	-0.9132385	
1749449988409	-0.8921814	
1749449988410	-0.87745667	
1749449988411	-0.8745575	
1749449988412	-0.88020325	
1749449988413	-0.8880615	
1749449988414	-0.893631	
1749449988415	-0.8961487	
1749449988416	-0.8972168	
1749449988417	-0.8986664	
1749449988418	-0.90148926	
1749449988419	-0.90431213	
1749449988420	-0.90553284	
1749449988421	-0.90431213	
1749449988422	-0.9033966	
1749449988423	-0.9060669	
1749449988424	-0.9138489	
1749449988425	-0.9236908	
1749449988426	-0.93162537	
1749449988427	-0.93536377	
1749449988428	-0.93559265	
1749449988429	-0.9340668	
1749449988430	-0.93322754	
1749449988431	-0.93574524	
1749449988432	-0.941391	
1749449988433	-0.94688416	
1749449988434	-0.9466553	
1749449988435	-0.9388733	
1749449988436	-0.9248352	
1749449988437	-0.908432	
1749449988438	-0.89263916	
1749449988439	-0.8795929	
1749449988440	-0.87112427	
1749449988441	-0.8692169	
1749449988442	-0.87493896	
1749449988443	-0.8883667	
1749449988444	-0.9082794	
1749449988445	-0.9300995	
1749449988446	-0.94688416	
1749449988447	-0.95207214	
1749449988448	-0.9465027	
1749449988449	-0.9361267	
1749449988450	-0.9285736	
1749449988451	-0.9272003	
1749449988452	-0.9308624	
1749449988453	-0.9347534	
1749449988454	-0.9348297	
1749449988455	-0.9290314	
1749449988456	-0.91926575	
1749449988457	-0.9109497	
1749449988458	-0.9072876	
1749449988459	-0.90782166	
1749449988460	-0.9069061	
1749449988461	-0.90179443	
1749449988462	-0.8950043	
1749449988463	-0.8935547	
1749449988464	-0.9024811	
1749449988465	-0.9222412	
1749449988466	-0.9479523	
1749449988467	-0.97229004	
1749449988468	-0.98716736	
1749449988469	-0.9901428	
1749449988470	-0.9880828	
1749449988471	-0.9877015	
1749449988472	-0.9898377	
1749449988473	-0.9864807	
1749449988474	-0.97206116	
1749449988475	-0.94932556	
1749449988476	-0.92933655	
1749449988477	-0.92155457	
1749449988478	-0.9287262	
1749449988479	-0.94299316	
1749449988480	-0.9486389	
1749449988481	-0.9326172	
1749449988482	-0.8945465	
1749449988483	-0.8531189	
1749449988484	-0.83244324	
1749449988485	-0.84594727	
1749449988486	-0.8870697	
1749449988487	-0.9349823	
1749449988488	-0.9662628	
1749449988489	-0.9679413	
1749449988490	-0.9434509	
1749449988491	-0.911026	
1749449988492	-0.892334	
1749449988493	-0.8974457	
1749449988494	-0.91934204	
1749449988495	-0.9413147	
1749449988496	-0.94955444	
1749449988497	-0.941391	
1749449988498	-0.9264374	
1749449988499	-0.91567993	
1749449988500	-0.9164429	
1749449988501	-0.92697144	
1749449988502	-0.9399414	
1749449988503	-0.9465027	
1749449988504	-0.94444275	
1749449988505	-0.9415436	
1749449988506	-0.9490967	
1749449988507	-0.9726715	
1749449988508	-1.0057068	
1749449988509	-1.0375977	
1749449988510	-1.0588074	
1749449988511	-1.0653687	
1749449988512	-1.0571289	
1749449988513	-1.0385132	
1749449988514	-1.0140991	
1749449988515	-0.98533624	
1749449988516	-0.95214844	
1749449988517	-0.9183502	
1749449988518	-0.89538574	
1749449988519	-0.8948517	
1749449988520	-0.91911316	
1749449988521	-0.95565796	
1749449988522	-0.98731995	
1749449988523	-1.0016632	
1749449988524	-0.9980011	
1749449988525	-0.984726	
1749449988526	-0.9767914	
1749449988527	-0.9867859	
1749449988528	-1.0148621	
1749449988529	-1.0484314	
1749449988530	-1.0704803	
1749449988531	-1.0746765	
1749449988532	-1.0660553	
1749449988533	-1.0553741	
1749449988534	-1.0472107	
1749449988535	-1.0407257	
1749449988536	-1.0311127	
1749449988537	-1.0140228	
1749449988538	-0.9877777	
1749449988539	-0.95726013	
1749449988540	-0.9348297	
1749449988541	-0.92811584	
1749449988542	-0.93437195	
1749449988543	-0.9413147	
1749449988544	-0.9414673	
1749449988545	-0.93696594	
1749449988546	-0.93681335	
1749449988547	-0.94818115	
1749449988548	-0.973053	
1749449988549	-1.0054779	
1749449988550	-1.0315704	
1749449988551	-1.0371399	
1749449988552	-1.0169983	
1749449988553	-0.9818268	
1749449988554	-0.9497833	
1749449988555	-0.934906	
1749449988556	-0.93826294	
1749449988557	-0.95222473	
1749449988558	-0.96481323	
1749449988559	-0.96588135	
1749449988560	-0.951004	
1749449988561	-0.92422485	
1749449988562	-0.8985901	
1749449988563	-0.88752747	
1749449988564	-0.8981323	
1749449988565	-0.9273529	
1749449988566	-0.9674072	
1749449988567	-1.0075378	
1749449988568	-1.037674	
1749449988569	-1.0488129	
1749449988570	-1.0411835	
1749449988571	-1.025238	
1749449988572	-1.0140991	
1749449988573	-1.0146332	
1749449988574	-1.0241699	
1749449988575	-1.0373688	
1749449988576	-1.0482788	
1749449988577	-1.053009	
1749449988578	-1.0478973	
1749449988579	-1.0361481	
1749449988580	-1.025238	
1749449988581	-1.0216522	
1749449988582	-1.0241699	
1749449988583	-1.0283661	
1749449988584	-1.0343933	
1749449988585	-1.0447693	
1749449988586	-1.0622406	
1749449988587	-1.0849762	
1749449988588	-1.1138153	
1749449988589	-1.1480713	
1749449988590	-1.1802673	
1749449988591	-1.194458	
1749449988592	-1.1764526	
1749449988593	-1.1235046	
1749449988594	-1.0464478	
1749449988595	-0.96702576	
1749449988596	-0.909729	
1749449988597	-0.8948517	
1749449988598	-0.9225464	
1749449988599	-0.9700012	
1749449988600	-1.0016632	
1749449988601	-0.9936524	
1749449988602	-0.94833374	
1749449988603	-0.891037	
1749449988604	-0.85365295	
1749449988605	-0.85762024	
1749449988606	-0.903244	
1749449988607	-0.9667206	
1749449988608	-1.0152435	
1749449988609	-1.0249329	
1749449988610	-0.99929804	
1749449988611	-0.9635925	
1749449988612	-0.9473419	
1749449988613	-0.96221924	
1749449988614	-0.99891657	
1749449988615	-1.0360718	
1749449988616	-1.0545349	
1749449988617	-1.047821	
1749449988618	-1.0232544	
1749449988619	-0.9999848	
1749449988620	-0.9931945	
1749449988621	-1.0047913	
1749449988622	-1.0205078	
1749449988623	-1.0263062	
1749449988624	-1.0188293	
1749449988625	-1.0059357	
1749449988626	-0.9985352	
1749449988627	-1.0034943	
1749449988628	-1.0228729	
1749449988629	-1.0482788	
1749449988630	-1.0652161	
1749449988631	-1.0600281	
1749449988632	-1.0334778	
1749449988633	-0.9984588	
1749449988634	-0.9706116	
1749449988635	-0.957489	
1749449988636	-0.9592438	
1749449988637	-0.9712219	
1749449988638	-0.9834289	
1749449988639	-0.98487854	
1749449988640	-0.9679413	
1749449988641	-0.9364319	
1749449988642	-0.90393066	
1749449988643	-0.88752747	
1749449988644	-0.89759827	
1749449988645	-0.9346771	
1749449988646	-0.9851838	
1749449988647	-1.0268402	
1749449988648	-1.0390472	
1749449988649	-1.0167694	
1749449988650	-0.97671515	
1749449988651	-0.9441376	
1749449988652	-0.9365845	
1749449988653	-0.953598	
1749449988654	-0.9816742	
1749449988655	-1.0034943	
1749449988656	-1.0089111	
1749449988657	-0.99609375	
1749449988658	-0.97488403	
1749449988659	-0.95977783	
1749449988660	-0.95947266	
1749449988661	-0.9703064	
1749449988662	-0.9801483	
1749449988663	-0.98129267	
1749449988664	-0.9750366	
1749449988665	-0.97091675	
1749449988666	-0.97663873	
1749449988667	-0.99655145	
1749449988668	-1.0266113	
1749449988669	-1.055603	
1749449988670	-1.0684967	
1749449988671	-1.0586548	
1749449988672	-1.0353851	
1749449988673	-1.0154724	
1749449988674	-1.0116577	
1749449988675	-1.0225677	
1749449988676	-1.039505	
1749449988677	-1.0507965	
1749449988678	-1.0487366	
1749449988679	-1.0299683	
1749449988680	-1.0002136	
1749449988681	-0.970459	
1749449988682	-0.9485626	
1749449988683	-0.93566895	
1749449988684	-0.9302521	
1749449988685	-0.93795776	
1749449988686	-0.9642792	
1749449988687	-1.0062408	
1749449988688	-1.0457611	
1749449988689	-1.0625458	
1749449988690	-1.047287	
1749449988691	-1.0079956	
1749449988692	-0.9654236	
1749449988693	-0.9423828	
1749449988694	-0.9526062	
1749449988695	-0.98731995	
1749449988696	-1.0208893	
1749449988697	-1.0264587	
1749449988698	-1.0005951	
1749449988699	-0.96351624	
1749449988700	-0.9427643	
1749449988701	-0.9502411	
1749449988702	-0.9764862	
1749449988703	-1.0011292	
1749449988704	-1.0071564	
1749449988705	-0.99296564	
1749449988706	-0.9716034	
1749449988707	-0.96481323	
1749449988708	-0.9831238	
1749449988709	-1.0176086	
1749449988710	-1.0442352	
1749449988711	-1.0458374	
1749449988712	-1.0244751	
1749449988713	-0.9967041	
1749449988714	-0.97747797	
1749449988715	-0.9700012	
1749449988716	-0.96855164	
1749449988717	-0.9630585	
1749449988718	-0.9486389	
1749449988719	-0.9276581	
1749449988720	-0.9136963	
1749449988721	-0.920105	
1749449988722	-0.9486389	
1749449988723	-0.9850311	
1749449988724	-1.0102081	
1749449988725	-1.0155487	
1749449988726	-1.006012	
1749449988727	-0.9945679	
1749449988728	-0.99121094	
1749449988729	-1.002121	
1749449988730	-1.0242462	
1749449988731	-1.0470581	
1749449988732	-1.0572052	
1749449988733	-1.0505676	
1749449988734	-1.0372162	
1749449988735	-1.0312653	
1749449988736	-1.0384369	
1749449988737	-1.0488129	
1749449988738	-1.0505676	
1749449988739	-1.0347748	
1749449988740	-1.0020447	
1749449988741	-0.9603119	
1749449988742	-0.9262848	
1749449988743	-0.9201813	
1749449988744	-0.95321655	
1749449988745	-1.019516	
1749449988746	-1.0967255	
1749449988747	-1.164856	
1749449988748	-1.2083435	
1749449988749	-1.2171173	
1749449988750	-1.186142	
1749449988751	-1.1232758	
1749449988752	-1.0495758	
1749449988753	-0.9905243	
1749449988754	-0.96702576	
1749449988755	-0.9896088	
1749449988756	-1.057663	
1749449988757	-1.1493683	
1749449988758	-1.2258148	
1749449988759	-1.2445068	
1749449988760	-1.1846161	
1749449988761	-1.0627747	
1749449988762	-0.92658997	
1749449988763	-0.8338165	
1749449988764	-0.8266449	
1749449988765	-0.90766907	
1749449988766	-1.0337067	
1749449988767	-1.1367035	
1749449988768	-1.160202	
1749449988769	-1.0971832	
1749449988770	-0.9918975	
1749449988771	-0.9107971	
1749449988772	-0.89927673	
1749449988773	-0.95817566	
1749449988774	-1.0466766	
1749449988775	-1.1128235	
1749449988776	-1.1226654	
1749449988777	-1.0771942	
1749449988778	-1.012497	
1749449988779	-0.9680939	
1749449988780	-0.96092224	
1749449988781	-0.9749603	
1749449988782	-0.9856415	
1749449988783	-0.98411566	
1749449988784	-0.98487854	
1749449988785	-1.0098267	
1749449988786	-1.065979	
1749449988787	-1.1426544	
1749449988788	-1.2095642	
1749449988789	-1.2342072	
1749449988790	-1.199646	
1749449988791	-1.1218262	
1749449988792	-1.0395813	
1749449988793	-0.9892273	
1749449988794	-0.9857941	
1749449988795	-1.0211945	
1749449988796	-1.0767365	
1749449988797	-1.1270905	
1749449988798	-1.149826	
1749449988799	-1.1301422	
1749449988800	-1.0691833	
1749449988801	-0.9834289	
1749449988802	-0.8984375	
1749449988803	-0.8416748	
1749449988804	-0.83732605	
1749449988805	-0.8933258	
1749449988806	-0.9898377	
1749449988807	-1.0822296	
1749449988808	-1.1221313	
1749449988809	-1.0892487	
1749449988810	-1.004715	
1749449988811	-0.9199524	
1749449988812	-0.8843994	
1749449988813	-0.91773987	
1749449988814	-0.9979248	
1749449988815	-1.078186	
1749449988816	-1.1135864	
1749449988817	-1.0894775	
1749449988818	-1.0329437	
1749449988819	-0.98609924	
1749449988820	-0.9754944	
1749449988821	-0.9915162	
1749449988822	-1.007843	
1749449988823	-1.0066223	
1749449988824	-0.9961701	
1749449988825	-1.0012817	
1749449988826	-1.0430145	
1749449988827	-1.1235809	
1749449988828	-1.2136078	
1749449988829	-1.2664795	
1749449988830	-1.2454987	
1749449988831	-1.1553955	
1749449988832	-1.040268	
1749449988833	-0.9548187	
1749449988834	-0.93048096	
1749449988835	-0.9625244	
1749449988836	-1.0205078	
1749449988837	-1.0655975	
1749449988838	-1.0736847	
1749449988839	-1.042633	
1749449988840	-0.9945679	
1749449988841	-0.95588684	
1749449988842	-0.93948364	
1749449988843	-0.94207764	
1749449988844	-0.95703125	
1749449988845	-0.9838868	
1749449988846	-1.0227966	
1749449988847	-1.0655212	
1749449988848	-1.0939026	
1749449988849	-1.0953522	
1749449988850	-1.0713196	
1749449988851	-1.0385895	
1749449988852	-1.0160828	
1749449988853	-1.0164642	
1749449988854	-1.0379028	
1749449988855	-1.0625458	
1749449988856	-1.068573	
1749449988857	-1.0454559	
1749449988858	-1.007843	
1749449988859	-0.9811402	
1749449988860	-0.9816742	
1749449988861	-1.002655	
1749449988862	-1.0250854	
1749449988863	-1.03302	
1749449988864	-1.0235596	
1749449988865	-1.0054016	
1749449988866	-0.99197394	
1749449988867	-0.99449164	
1749449988868	-1.0097504	
1749449988869	-1.0236359	
1749449988870	-1.0202026	
1749449988871	-0.99929804	
1749449988872	-0.9740448	
1749449988873	-0.9588623	
1749449988874	-0.957489	
1749449988875	-0.96336365	
1749449988876	-0.9680939	
1749449988877	-0.9653473	
1749449988878	-0.954895	
1749449988879	-0.9403229	
1749449988880	-0.92926025	
1749449988881	-0.92552185	
1749449988882	-0.9275818	
1749449988883	-0.9301758	
1749449988884	-0.9324646	
1749449988885	-0.93917847	
1749449988886	-0.95596313	
1749449988887	-0.9824372	
1749449988888	-1.0119629	
1749449988889	-1.0374451	
1749449988890	-1.0536194	
1749449988891	-1.0596466	
1749449988892	-1.0569763	
1749449988893	-1.0532379	
1749449988894	-1.0559082	
1749449988895	-1.0671997	
1749449988896	-1.0790253	
1749449988897	-1.0816193	
1749449988898	-1.072464	
1749449988899	-1.0567474	
1749449988900	-1.0411072	
1749449988901	-1.0275269	
1749449988902	-1.018219	
1749449988903	-1.0134888	
1749449988904	-1.0134888	
1749449988905	-1.0148621	
1749449988906	-1.0178375	
1749449988907	-1.0250854	
1749449988908	-1.0373688	
1749449988909	-1.0501099	
1749449988910	-1.0561371	
1749449988911	-1.0559082	
1749449988912	-1.052475	
1749449988913	-1.0475922	
1749449988914	-1.036911	
1749449988915	-1.018753	
1749449988916	-0.99609375	
1749449988917	-0.9742737	
1749449988918	-0.95726013	
1749449988919	-0.94841003	
1749449988920	-0.95314026	
1749449988921	-0.9716797	
1749449988922	-0.9970092	
1749449988923	-1.015091	
1749449988924	-1.0197449	
1749449988925	-1.0140228	
1749449988926	-1.0060883	
1749449988927	-1.001358	
1749449988928	-1.0017395	
1749449988929	-1.0089111	
1749449988930	-1.0207367	
1749449988931	-1.032486	
1749449988932	-1.0374451	
1749449988933	-1.0366821	
1749449988934	-1.034317	
1749449988935	-1.0329437	
1749449988936	-1.0299683	
1749449988937	-1.0238647	
1749449988938	-1.0186005	
1749449988939	-1.0175323	
1749449988940	-1.0195923	
1749449988941	-1.0189056	
1749449988942	-1.0146332	
1749449988943	-1.0096741	
1749449988944	-1.0086823	
1749449988945	-1.0118103	
1749449988946	-1.019516	
1749449988947	-1.0321045	
1749449988948	-1.0463715	
1749449988949	-1.0551453	
1749449988950	-1.0516357	
1749449988951	-1.0379791	
1749449988952	-1.0193634	
1749449988953	-1.0007477	
1749449988954	-0.98358154	
1749449988955	-0.971756	
1749449988956	-0.96855164	
1749449988957	-0.97198486	
1749449988958	-0.97366333	
1749449988959	-0.96580505	
1749449988960	-0.9487915	
1749449988961	-0.9283447	
1749449988962	-0.9123993	
1749449988963	-0.9059143	
1749449988964	-0.91156006	
1749449988965	-0.92658997	
1749449988966	-0.94429016	
1749449988967	-0.9567261	
1749449988968	-0.9630585	
1749449988969	-0.96824646	
1749449988970	-0.97717285	
1749449988971	-0.9885407	
1749449988972	-0.99678034	
1749449988973	-0.9989929	
1749449988974	-0.9977722	
1749449988975	-0.9992218	
1749449988976	-1.0060883	
1749449988977	-1.0184479	
1749449988978	-1.0309601	
1749449988979	-1.0379791	
1749449988980	-1.0338593	
1749449988981	-1.0211945	
1749449988982	-1.0105896	
1749449988983	-1.0128784	
1749449988984	-1.0301971	
1749449988985	-1.0540771	
1749449988986	-1.0774994	
1749449988987	-1.0966492	
1749449988988	-1.1109161	
1749449988989	-1.1158752	
1749449988990	-1.1081696	
1749449988991	-1.087265	
1749449988992	-1.0552979	
1749449988993	-1.0166168	
1749449988994	-0.9794617	
1749449988995	-0.9577942	
1749449988996	-0.9592438	
1749449988997	-0.97824097	
1749449988998	-0.99624634	
1749449988999	-0.99761957	
1749449989000	-0.97793573	
1749449989001	-0.9449768	
1749449989002	-0.91300964	
1749449989003	-0.8969116	
1749449989004	-0.9049225	
1749449989005	-0.93185425	
1749449989006	-0.96221924	
1749449989007	-0.98030096	
1749449989008	-0.98403925	
1749449989009	-0.982666	
1749449989010	-0.98815924	
1749449989011	-1.002655	
1749449989012	-1.0201263	
1749449989013	-1.0312653	
1749449989014	-1.0301208	
1749449989015	-1.0178375	
1749449989016	-1.0033417	
1749449989017	-0.99876404	
1749449989018	-1.0082245	
1749449989019	-1.0240173	
1749449989020	-1.0298157	
1749449989021	-1.0185242	
1749449989022	-0.99678034	
1749449989023	-0.9799957	
1749449989024	-0.97740173	
1749449989025	-0.9877777	
1749449989026	-1.0037994	
1749449989027	-1.016922	
1749449989028	-1.0231781	
1749449989029	-1.0231018	
1749449989030	-1.0254669	
1749449989031	-1.034317	
1749449989032	-1.0438538	
1749449989033	-1.0406494	
1749449989034	-1.0186768	
1749449989035	-0.9874725	
1749449989036	-0.965271	
1749449989037	-0.9651947	
1749449989038	-0.9854889	
1749449989039	-1.0146332	
1749449989040	-1.034317	
1749449989041	-1.0321045	
1749449989042	-1.006012	
1749449989043	-0.97106934	
1749449989044	-0.94932556	
1749449989045	-0.9541321	
1749449989046	-0.98075867	
1749449989047	-1.0131073	
1749449989048	-1.0367584	
1749449989049	-1.0449219	
1749449989050	-1.0401917	
1749449989051	-1.0284424	
1749449989052	-1.0192108	
1749449989053	-1.0164642	
1749449989054	-1.0169983	
1749449989055	-1.0123444	
1749449989056	-0.99937445	
1749449989057	-0.9838868	
1749449989058	-0.97457886	
1749449989059	-0.97473145	
1749449989060	-0.9800721	
1749449989061	-0.9863281	
1749449989062	-0.9909058	
1749449989063	-0.99449164	
1749449989064	-0.9968567	
1749449989065	-0.9999848	
1749449989066	-1.006012	
1749449989067	-1.0162354	
1749449989068	-1.0275269	
1749449989069	-1.036911	
1749449989070	-1.0451508	
1749449989071	-1.0501099	
1749449989072	-1.0469055	
1749449989073	-1.0283661	
1749449989074	-0.9981537	
1749449989075	-0.9689331	
1749449989076	-0.954895	
1749449989077	-0.96084595	
1749449989078	-0.98121643	
1749449989079	-1.0033417	
1749449989080	-1.0122681	
1749449989081	-0.99823	
1749449989082	-0.9640503	
1749449989083	-0.92948914	
1749449989084	-0.9172058	
1749449989085	-0.9375763	
1749449989086	-0.9798431	
1749449989087	-1.0225677	
1749449989088	-1.0467529	
1749449989089	-1.0460663	
1749449989090	-1.0281372	
1749449989091	-1.0094452	
1749449989092	-1.0061646	
1749449989093	-1.0202789	
1749449989094	-1.0387421	
1749449989095	-1.0436249	
1749449989096	-1.0293579	
1749449989097	-1.0056305	
1749449989098	-0.9885407	
1749449989099	-0.984726	
1749449989100	-0.9906006	
1749449989101	-0.99830633	
1749449989102	-1.0018158	
1749449989103	-1.0002899	
1749449989104	-0.99601746	
1749449989105	-0.9967041	
1749449989106	-1.0079956	
1749449989107	-1.0308838	
1749449989108	-1.0585022	
1749449989109	-1.085968	
1749449989110	-1.1117554	
1749449989111	-1.1307526	
1749449989112	-1.1327362	
1749449989113	-1.1082458	
1749449989114	-1.0619354	
1749449989115	-1.0102844	
1749449989116	-0.9727478	
1749449989117	-0.95954895	
1749449989118	-0.9706116	
1749449989119	-0.99479675	
1749449989120	-1.0168457	
1749449989121	-1.0227966	
1749449989122	-1.0108948	
1749449989123	-0.99533087	
1749449989124	-0.9909058	
1749449989125	-1.0020447	
1749449989126	-1.0192108	
1749449989127	-1.0314178	
1749449989128	-1.0319519	
1749449989129	-1.0218811	
1749449989130	-1.0070038	
1749449989131	-0.99662787	
1749449989132	-0.99830633	
1749449989133	-1.0112	
1749449989134	-1.0256195	
1749449989135	-1.029892	
1749449989136	-1.0221863	
1749449989137	-1.0081482	
1749449989138	-0.99632263	
1749449989139	-0.9899902	
1749449989140	-0.9899902	
1749449989141	-0.99494934	
1749449989142	-1.001358	
1749449989143	-1.0041809	
1749449989144	-1.002121	
1749449989145	-1.0015869	
1749449989146	-1.0112762	
1749449989147	-1.0364532	
1749449989148	-1.071701	
1749449989149	-1.1107635	
1749449989150	-1.1468506	
1749449989151	-1.1707306	
1749449989152	-1.1709595	
1749449989153	-1.1397552	
1749449989154	-1.0800171	
1749449989155	-1.0054779	
1749449989156	-0.93711853	
1749449989157	-0.8959961	
1749449989158	-0.89630127	
1749449989159	-0.93078613	
1749449989160	-0.97236633	
1749449989161	-0.9876251	
1749449989162	-0.96076965	
1749449989163	-0.9072876	
1749449989164	-0.86273193	
1749449989165	-0.85876465	
1749449989166	-0.90393066	
1749449989167	-0.9768676	
1749449989168	-1.0382843	
1749449989169	-1.0564423	
1749449989170	-1.0269165	
1749449989171	-0.9776306	
1749449989172	-0.947876	
1749449989173	-0.9616089	
1749449989174	-1.0096741	
1749449989175	-1.0604858	
1749449989176	-1.0813904	
1749449989177	-1.0619354	
1749449989178	-1.0169983	
1749449989179	-0.9752655	
1749449989180	-0.962677	
1749449989181	-0.9825134	
1749449989182	-1.0152435	
1749449989183	-1.0309601	
1749449989184	-1.0166931	
1749449989185	-0.98403925	
1749449989186	-0.9601593	
1749449989187	-0.96458435	
1749449989188	-0.99731445	
1749449989189	-1.040802	
1749449989190	-1.0691833	
1749449989191	-1.0658264	
1749449989192	-1.032486	
1749449989193	-0.9895325	
1749449989194	-0.9591675	
1749449989195	-0.951004	
1749449989196	-0.9577942	
1749449989197	-0.9677124	
1749449989198	-0.97206116	
1749449989199	-0.96817017	
1749449989200	-0.95726013	
1749449989201	-0.941391	
1749449989202	-0.9249115	
1749449989203	-0.9149933	
1749449989204	-0.9195709	
1749449989205	-0.9441376	
1749449989206	-0.9882355	
1749449989207	-1.0387421	
1749449989208	-1.0746002	
1749449989209	-1.0757446	
1749449989210	-1.0404968	
1749449989211	-0.9901428	
1749449989212	-0.9555054	
1749449989213	-0.9560394	
1749449989214	-0.9877015	
1749449989215	-1.0273743	
1749449989216	-1.0480499	
1749449989217	-1.0371399	
1749449989218	-1.0015106	
1749449989219	-0.96687317	
1749449989220	-0.9574127	
1749449989221	-0.97770685	
1749449989222	-1.0084534	
1749449989223	-1.0232544	
1749449989224	-1.0097504	
1749449989225	-0.97846985	
1749449989226	-0.9548187	
1749449989227	-0.9604645	
1749449989228	-1.0011292	
1749449989229	-1.0578156	
1749449989230	-1.099472	
1749449989231	-1.101532	
1749449989232	-1.065445	
1749449989233	-1.0172272	
1749449989234	-0.9883117	
1749449989235	-0.9932709	
1749449989236	-1.0240936	
1749449989237	-1.0587311	
1749449989238	-1.0744476	
1749449989239	-1.060791	
1749449989240	-1.0222626	
1749449989241	-0.97610474	
1749449989242	-0.9397888	
1749449989243	-0.9223938	
1749449989244	-0.92193604	
1749449989245	-0.93292236	
1749449989246	-0.9497833	
1749449989247	-0.9674072	
1749449989248	-0.9791565	
1749449989249	-0.9793853	
1749449989250	-0.96954346	
1749449989251	-0.9552765	
1749449989252	-0.94421387	
1749449989253	-0.9410095	
1749449989254	-0.9477234	
1749449989255	-0.95947266	
1749449989256	-0.9674835	
1749449989257	-0.9627533	
1749449989258	-0.94444275	
1749449989259	-0.92063904	
1749449989260	-0.903244	
1749449989261	-0.9000397	
1749449989262	-0.91026306	
1749449989263	-0.9275055	
1749449989264	-0.9422302	
1749449989265	-0.9484863	
1749449989266	-0.9460449	
1749449989267	-0.9423828	
1749449989268	-0.946579	
1749449989269	-0.96199036	
1749449989270	-0.98335266	
1749449989271	-1.0022736	
1749449989272	-1.013794	
1749449989273	-1.0198212	
1749449989274	-1.0255432	
1749449989275	-1.0349274	
1749449989276	-1.0503387	
1749449989277	-1.0697937	
1749449989278	-1.0888672	
1749449989279	-1.0999298	
1749449989280	-1.1006165	
1749449989281	-1.0942078	
1749449989282	-1.0861969	
1749449989283	-1.0779572	
1749449989284	-1.0690308	
1749449989285	-1.0605621	
1749449989286	-1.0554504	
1749449989287	-1.0551453	
1749449989288	-1.0578156	
1749449989289	-1.0640717	
1749449989290	-1.0726166	
1749449989291	-1.0791779	
1749449989292	-1.075058	
1749449989293	-1.0565948	
1749449989294	-1.0281372	
1749449989295	-0.99807745	
1749449989296	-0.9740448	
1749449989297	-0.9599304	
1749449989298	-0.95680237	
1749449989299	-0.95932007	
1749449989300	-0.95970154	
1749449989301	-0.9515381	
1749449989302	-0.9378052	
1749449989303	-0.92666626	
1749449989304	-0.9252167	
1749449989305	-0.93330383	
1749449989306	-0.9461975	
1749449989307	-0.9578705	
1749449989308	-0.96336365	
1749449989309	-0.9612274	
1749449989310	-0.9548187	
1749449989311	-0.95214844	
1749449989312	-0.9585571	
1749449989313	-0.9725189	
1749449989314	-0.984497	
1749449989315	-0.986023	
1749449989316	-0.9750366	
1749449989317	-0.95817566	
1749449989318	-0.94558716	
1749449989319	-0.94581604	
1749449989320	-0.9612274	
1749449989321	-0.9849549	
1749449989322	-1.0043335	
1749449989323	-1.0085297	
1749449989324	-0.9995269	
1749449989325	-0.9889985	
1749449989326	-0.9893798	
1749449989327	-1.0016632	
1749449989328	-1.0195923	
1749449989329	-1.0344696	
1749449989330	-1.0408783	
1749449989331	-1.0374451	
1749449989332	-1.0266876	
1749449989333	-1.0157776	
1749449989334	-1.008606	
1749449989335	-1.0037994	
1749449989336	-0.9964752	
1749449989337	-0.9869385	
1749449989338	-0.9796142	
1749449989339	-0.97846985	
1749449989340	-0.98106384	
1749449989341	-0.98281866	
1749449989342	-0.9816742	
1749449989343	-0.9783172	
1749449989344	-0.9753418	
1749449989345	-0.9752655	
1749449989346	-0.9832	
1749449989347	-1.0012054	
1749449989348	-1.0254669	
1749449989349	-1.0453033	
1749449989350	-1.0536194	
1749449989351	-1.049118	
1749449989352	-1.03508	
1749449989353	-1.0153198	
1749449989354	-0.9946441	
1749449989355	-0.98152155	
1749449989356	-0.9814453	
1749449989357	-0.9926605	
1749449989358	-1.0047913	
1749449989359	-1.007843	
1749449989360	-0.9957122	
1749449989361	-0.97068787	
1749449989362	-0.9401703	
1749449989363	-0.9169769	
1749449989364	-0.91316223	
1749449989365	-0.931015	
1749449989366	-0.96076965	
1749449989367	-0.9875488	
1749449989368	-1.0035706	
1749449989369	-1.0092926	
1749449989370	-1.0105133	
1749449989371	-1.0112762	
1749449989372	-1.0141754	
1749449989373	-1.0179901	
1749449989374	-1.0182953	
1749449989375	-1.0101318	
1749449989376	-0.9941864	
1749449989377	-0.9777832	
1749449989378	-0.9689331	
1749449989379	-0.96946716	
1749449989380	-0.9731293	
1749449989381	-0.97465515	
1749449989382	-0.973053	
1749449989383	-0.9728241	
1749449989384	-0.97740173	
1749449989385	-0.98892206	
1749449989386	-1.0063934	
1749449989387	-1.0259247	
1749449989388	-1.0411072	
1749449989389	-1.0478973	
1749449989390	-1.0502625	
1749449989391	-1.0516357	
1749449989392	-1.0513306	
1749449989393	-1.0421753	
1749449989394	-1.0222626	
1749449989395	-0.9981537	
1749449989396	-0.9814453	
1749449989397	-0.9790802	
1749449989398	-0.98991394	
1749449989399	-1.0056305	
1749449989400	-1.0121918	
1749449989401	-0.9994507	
1749449989402	-0.9674835	
1749449989403	-0.9327698	
1749449989404	-0.91529846	
1749449989405	-0.9251404	
1749449989406	-0.9550476	
1749449989407	-0.9887696	
1749449989408	-1.0107422	
1749449989409	-1.0138702	
1749449989410	-1.0012817	
1749449989411	-0.98358154	
1749449989412	-0.9737396	
1749449989413	-0.97702026	
1749449989414	-0.9887696	
1749449989415	-0.99891657	
1749449989416	-1.0019684	
1749449989417	-0.99861145	
1749449989418	-0.99403375	
1749449989419	-0.98991394	
1749449989420	-0.9862519	
1749449989421	-0.9831238	
1749449989422	-0.9811402	
1749449989423	-0.9813691	
1749449989424	-0.98434454	
1749449989425	-0.993042	
1749449989426	-1.0105896	
1749449989427	-1.0391235	
1749449989428	-1.0749817	
1749449989429	-1.1151886	
1749449989430	-1.1552429	
1749449989431	-1.1860657	
1749449989432	-1.1950684	
1749449989433	-1.1740875	
1749449989434	-1.1295319	
1749449989435	-1.0805511	
1749449989436	-1.0487366	
1749449989437	-1.046524	
1749449989438	-1.0741425	
1749449989439	-1.1159515	
1749449989440	-1.147995	
1749449989441	-1.146698	
1749449989442	-1.1075592	
1749449989443	-1.0510254	
1749449989444	-1.0097504	
1749449989445	-1.0083008	
1749449989446	-1.0496521	
1749449989447	-1.1174011	
1749449989448	-1.182785	
1749449989449	-1.220398	
1749449989450	-1.2184906	
1749449989451	-1.1885071	
1749449989452	-1.1557007	
1749449989453	-1.1401367	
1749449989454	-1.1430359	
1749449989455	-1.1510468	
1749449989456	-1.1515045	
1749449989457	-1.1397552	
1749449989458	-1.1199188	
1749449989459	-1.0964966	
1749449989460	-1.0771942	
1749449989461	-1.0661316	
1749449989462	-1.0614777	
1749449989463	-1.0558319	
1749449989464	-1.0444641	
1749449989465	-1.03302	
1749449989466	-1.0319519	
1749449989467	-1.0496521	
1749449989468	-1.0831451	
1749449989469	-1.1255646	
1749449989470	-1.1643982	
1749449989471	-1.1840057	
1749449989472	-1.1709595	
1749449989473	-1.1252594	
1749449989474	-1.0645294	
1749449989475	-1.0113525	
1749449989476	-0.9815979	
1749449989477	-0.97694397	
1749449989478	-0.9918975	
1749449989479	-1.0125732	
1749449989480	-1.022644	
1749449989481	-1.0100555	
1749449989482	-0.97694397	
1749449989483	-0.94207764	
1749449989484	-0.9283447	
1749449989485	-0.94841003	
1749449989486	-0.997696	
1749449989487	-1.0590363	
1749449989488	-1.1077118	
1749449989489	-1.1251068	
1749449989490	-1.1063385	
1749449989491	-1.0691833	
1749449989492	-1.0417175	
1749449989493	-1.0432434	
1749449989494	-1.0707855	
1749449989495	-1.1040497	
1749449989496	-1.1217499	
1749449989497	-1.1146545	
1749449989498	-1.0883331	
1749449989499	-1.055069	
1749449989500	-1.0311127	
1749449989501	-1.0243225	
1749449989502	-1.0308075	
1749449989503	-1.0370636	
1749449989504	-1.0344696	
1749449989505	-1.0289764	
1749449989506	-1.0346222	
1749449989507	-1.0618591	
1749449989508	-1.1066437	
1749449989509	-1.1573029	
1749449989510	-1.1969757	
1749449989511	-1.2097168	
1749449989512	-1.1870575	
1749449989513	-1.1352539	
1749449989514	-1.0720062	
1749449989515	-1.0150146	
1749449989516	-0.9742737	
1749449989517	-0.952301	
1749449989518	-0.95077515	
1749449989519	-0.967865	
1749449989520	-0.996933	
1749449989521	-1.0237122	
1749449989522	-1.0367584	
1749449989523	-1.0322571	
1749449989524	-1.0151672	
1749449989525	-0.99494934	
1749449989526	-0.9844208	
1749449989527	-0.9938049	
1749449989528	-1.0212708	
1749449989529	-1.0525513	
1749449989530	-1.0681915	
1749449989531	-1.0614777	
1749449989532	-1.0411072	
1749449989533	-1.0250854	
1749449989534	-1.0237885	
1749449989535	-1.0361481	
1749449989536	-1.0525513	
1749449989537	-1.0600281	
1749449989538	-1.0501862	
1749449989539	-1.0240936	
1749449989540	-0.9959411	
1749449989541	-0.9803772	
1749449989542	-0.9823608	
1749449989543	-0.993042	
1749449989544	-1.0031128	
1749449989545	-1.0111237	
1749449989546	-1.0249329	
1749449989547	-1.0542297	
1749449989548	-1.1026764	
1749449989549	-1.1696625	
1749449989550	-1.2426758	
1749449989551	-1.3000488	
1749449989552	-1.3188934	
1749449989553	-1.2902069	
1749449989554	-1.2242126	
1749449989555	-1.145401	
1749449989556	-1.0786438	
1749449989557	-1.0424805	
1749449989558	-1.0430145	
1749449989559	-1.0664368	
1749449989560	-1.0858154	
1749449989561	-1.0742188	
1749449989562	-1.0267639	
1749449989563	-0.9651947	
1749449989564	-0.9233856	
1749449989565	-0.9249115	
1749449989566	-0.9713745	
1749449989567	-1.0391998	
1749449989568	-1.0902405	
1749449989569	-1.0929108	
1749449989570	-1.0428619	
1749449989571	-0.9718323	
1749449989572	-0.92414856	
1749449989573	-0.9275055	
1749449989574	-0.9731293	
1749449989575	-1.026535	
1749449989576	-1.0499573	
1749449989577	-1.0280609	
1749449989578	-0.9753418	
1749449989579	-0.9259796	
1749449989580	-0.9125519	
1749449989581	-0.94055176	
1749449989582	-0.986023	
1749449989583	-1.0136414	
1749449989584	-1.007309	
1749449989585	-0.9803772	
1749449989586	-0.9651947	
1749449989587	-0.98609924	
1749449989588	-1.0445404	
1749449989589	-1.1188507	
1749449989590	-1.1764526	
1749449989591	-1.1929321	
1749449989592	-1.1647034	
1749449989593	-1.1107635	
1749449989594	-1.0564423	
1749449989595	-1.0183716	
1749449989596	-0.99716187	
1749449989597	-0.9898377	
1749449989598	-0.99334717	
1749449989599	-1.0035706	
1749449989600	-1.0107422	
1749449989601	-1.0018158	
1749449989602	-0.9727478	
1749449989603	-0.9338379	
1749449989604	-0.90644836	
1749449989605	-0.9108734	
1749449989606	-0.954895	
1749449989607	-1.0217285	
1749449989608	-1.0767365	
1749449989609	-1.0857391	
1749449989610	-1.042633	
1749449989611	-0.9768676	
1749449989612	-0.9326935	
1749449989613	-0.93788147	
1749449989614	-0.9854126	
1749449989615	-1.0422516	
1749449989616	-1.0700226	
1749449989617	-1.0520935	
1749449989618	-1.0003662	
1749449989619	-0.9503937	
1749449989620	-0.9351349	
1749449989621	-0.9602356	
1749449989622	-1.0006714	
1749449989623	-1.0228729	
1749449989624	-1.013031	
1749449989625	-0.9856415	
1749449989626	-0.9715271	
1749449989627	-0.9925843	
1749449989628	-1.0505676	
1749449989629	-1.1228943	
1749449989630	-1.1753845	
1749449989631	-1.1819458	
1749449989632	-1.140976	
1749449989633	-1.075058	
1749449989634	-1.0137177	
1749449989635	-0.9755707	
1749449989636	-0.96351624	
1749449989637	-0.9725952	
1749449989638	-0.9931945	
1749449989639	-1.014328	
1749449989640	-1.0224152	
1749449989641	-1.0087585	
1749449989642	-0.97435	
1749449989643	-0.9313965	
1749449989644	-0.8981323	
1749449989645	-0.8931732	
1749449989646	-0.9246063	
1749449989647	-0.98083496	
1749449989648	-1.0335541	
1749449989649	-1.0533905	
1749449989650	-1.0345459	
1749449989651	-0.9977722	
1749449989652	-0.97572327	
1749449989653	-0.9859466	
1749449989654	-1.022644	
1749449989655	-1.0620117	
1749449989656	-1.0781097	
1749449989657	-1.060791	
1749449989658	-1.0205078	
1749449989659	-0.9854889	
1749449989660	-0.97770685	
1749449989661	-0.9979248	
1749449989662	-1.0238647	
1749449989663	-1.0327911	
1749449989664	-1.0179138	
1749449989665	-0.9915162	
1749449989666	-0.973053	
1749449989667	-0.9763336	
1749449989668	-1.0040283	
1749449989669	-1.0430145	
1749449989670	-1.0729218	
1749449989671	-1.0766602	
1749449989672	-1.0552979	
1749449989673	-1.0240173	
1749449989674	-0.99967957	
1749449989675	-0.9888458	
1749449989676	-0.9889985	
1749449989677	-0.99555975	
1749449989678	-1.0027313	
1749449989679	-1.0044098	
1749449989680	-0.9944153	
1749449989681	-0.9729767	
1749449989682	-0.94467163	
1749449989683	-0.9174347	
1749449989684	-0.89889526	
1749449989685	-0.8984375	
1749449989686	-0.9225464	
1749449989687	-0.96595764	
1749449989688	-1.0102844	
1749449989689	-1.0334778	
1749449989690	-1.0276031	
1749449989691	-1.0018158	
1749449989692	-0.9767914	
1749449989693	-0.96855164	
1749449989694	-0.98358154	
1749449989695	-1.0126495	
1749449989696	-1.0372925	
1749449989697	-1.0398865	
1749449989698	-1.0183716	
1749449989699	-0.9903717	
1749449989700	-0.97702026	
1749449989701	-0.9870147	
1749449989702	-1.0089111	
1749449989703	-1.0260773	
1749449989704	-1.0275269	
1749449989705	-1.0153961	
1749449989706	-0.9999848	
1749449989707	-0.99502563	
1749449989708	-1.0083771	
1749449989709	-1.0343933	
1749449989710	-1.0566711	
1749449989711	-1.0593414	
1749449989712	-1.0429382	
1749449989713	-1.0198212	
1749449989714	-1.0042572	
1749449989715	-0.9995269	
1749449989716	-1.001358	
1749449989717	-1.0017395	
1749449989718	-0.9951782	
1749449989719	-0.98129267	
1749449989720	-0.966568	
1749449989721	-0.9640503	
1749449989722	-0.98129267	
1749449989723	-1.0141754	
1749449989724	-1.0456848	
1749449989725	-1.0626221	
1749449989726	-1.061554	
1749449989727	-1.0498047	
1749449989728	-1.036377	
1749449989729	-1.0289001	
1749449989730	-1.0320282	
1749449989731	-1.0419464	
1749449989732	-1.0491943	
1749449989733	-1.0440063	
1749449989734	-1.0287476	
1749449989735	-1.0134125	
1749449989736	-1.0075378	
1749449989737	-1.009903	
1749449989738	-1.0138702	
1749449989739	-1.013794	
1749449989740	-1.0057068	
1749449989741	-0.9902954	
1749449989742	-0.97190857	
1749449989743	-0.96069336	
1749449989744	-0.9625244	
1749449989745	-0.97442627	
1749449989746	-0.9859466	
1749449989747	-0.99281317	
1749449989748	-0.9994507	
1749449989749	-1.0109711	
1749449989750	-1.024704	
1749449989751	-1.0309601	
1749449989752	-1.0236359	
1749449989753	-1.0043335	
1749449989754	-0.9827423	
1749449989755	-0.96984863	
1749449989756	-0.97366333	
1749449989757	-0.9901428	
1749449989758	-1.003952	
1749449989759	-0.99655145	
1749449989760	-0.96351624	
1749449989761	-0.92025757	
1749449989762	-0.8895111	
1749449989763	-0.88523865	
1749449989764	-0.90415955	
1749449989765	-0.9340668	
1749449989766	-0.9612274	
1749449989767	-0.97816473	
1749449989768	-0.9829712	
1749449989769	-0.98083496	
1749449989770	-0.9783936	
1749449989771	-0.97793573	
1749449989772	-0.9764862	
1749449989773	-0.97190857	
1749449989774	-0.9693146	
1749449989775	-0.9738922	
1749449989776	-0.9851838	
1749449989777	-0.9936524	
1749449989778	-0.99121094	
1749449989779	-0.97663873	
1749449989780	-0.9566498	
1749449989781	-0.9397125	
1749449989782	-0.93307495	
1749449989783	-0.93933105	
1749449989784	-0.95314026	
1749449989785	-0.96458435	
1749449989786	-0.96588135	
1749449989787	-0.9612274	
1749449989788	-0.9611511	
1749449989789	-0.9729767	
1749449989790	-0.99220276	
1749449989791	-1.0087585	
1749449989792	-1.0135651	
1749449989793	-1.0045624	
1749449989794	-0.98663336	
1749449989795	-0.9700775	
1749449989796	-0.96710205	
1749449989797	-0.9814453	
1749449989798	-1.0044098	
1749449989799	-1.0179901	
1749449989800	-1.0108948	
1749449989801	-0.98480225	
1749449989802	-0.95329285	
1749449989803	-0.93040466	
1749449989804	-0.9272003	
1749449989805	-0.9487915	
1749449989806	-0.9897613	
1749449989807	-1.034317	
1749449989808	-1.062851	
1749449989809	-1.0668945	
1749449989810	-1.0507202	
1749449989811	-1.0282135	
1749449989812	-1.0115051	
1749449989813	-1.0097504	
1749449989814	-1.0257721	
1749449989815	-1.0512543	
1749449989816	-1.06987	
1749449989817	-1.0665131	
1749449989818	-1.0412598	
1749449989819	-1.0048676	
1749449989820	-0.97091675	
1749449989821	-0.94696045	
1749449989822	-0.93666077	
1749449989823	-0.9389496	
1749449989824	-0.9486389	
1749449989825	-0.95825195	
1749449989826	-0.9635925	
1749449989827	-0.9690857	
1749449989828	-0.98030096	
1749449989829	-0.9980011	
1749449989830	-1.0147095	
1749449989831	-1.0243988	
1749449989832	-1.0235596	
1749449989833	-1.0128784	
1749449989834	-0.99555975	
1749449989835	-0.9790802	
1749449989836	-0.9724426	
1749449989837	-0.9793091	
1749449989838	-0.9936524	
1749449989839	-1.0031891	
1749449989840	-1.0028839	
1749449989841	-0.9939575	
1749449989842	-0.9817504	
1749449989843	-0.96824646	
1749449989844	-0.9567261	
1749449989845	-0.9524536	
1749449989846	-0.958786	
1749449989847	-0.9742737	
1749449989848	-0.9934235	
1749449989849	-1.0121155	
1749449989850	-1.0263062	
1749449989851	-1.0323334	
1749449989852	-1.0274506	
1749449989853	-1.0163116	
1749449989854	-1.0066223	
1749449989855	-1.0027313	
1749449989856	-1.0012817	
1749449989857	-0.99655145	
1749449989858	-0.986557	
1749449989859	-0.97190857	
1749449989860	-0.95558167	
1749449989861	-0.9415436	
1749449989862	-0.9359741	
1749449989863	-0.94192505	
1749449989864	-0.95596313	
1749449989865	-0.96847534	
1749449989866	-0.97435	
1749449989867	-0.9763336	
1749449989868	-0.98152155	
1749449989869	-0.9921264	
1749449989870	-1.0040283	
1749449989871	-1.0115051	
1749449989872	-1.010437	
1749449989873	-1.0016632	
1749449989874	-0.9897613	
1749449989875	-0.983963	
1749449989876	-0.9897613	
1749449989877	-1.003952	
1749449989878	-1.0144806	
1749449989879	-1.0121918	
1749449989880	-0.9992218	
1749449989881	-0.9842681	
1749449989882	-0.9741211	
1749449989883	-0.9680176	
1749449989884	-0.9637451	
1749449989885	-0.9599304	
1749449989886	-0.95848083	
1749449989887	-0.9604645	
1749449989888	-0.9688568	
1749449989889	-0.98403925	
1749449989890	-1.0005951	
1749449989891	-1.0081482	
1749449989892	-0.99929804	
1749449989893	-0.97900397	
1749449989894	-0.9580231	
1749449989895	-0.9462738	
1749449989896	-0.9460449	
1749449989897	-0.95466614	
1749449989898	-0.9654236	
1749449989899	-0.9712982	
1749449989900	-0.96694946	
1749449989901	-0.95565796	
1749449989902	-0.94802856	
1749449989903	-0.9537506	
1749449989904	-0.9727478	
1749449989905	-0.99479675	
1749449989906	-1.0113525	
1749449989907	-1.0202026	
1749449989908	-1.0268402	
1749449989909	-1.0352325	
1749449989910	-1.0477448	
1749449989911	-1.0617828	
1749449989912	-1.0697937	
1749449989913	-1.0629272	
1749449989914	-1.0391998	
1749449989915	-1.0121155	
1749449989916	-0.99884033	
1749449989917	-1.0070038	
1749449989918	-1.0255432	
1749449989919	-1.0382843	
1749449989920	-1.0358429	
1749449989921	-1.0225677	
1749449989922	-1.0095215	
1749449989923	-1.0079193	
1749449989924	-1.0237122	
1749449989925	-1.048584	
1749449989926	-1.0666656	
1749449989927	-1.0634613	
1749449989928	-1.044693	
1749449989929	-1.0290527	
1749449989930	-1.0322571	
1749449989931	-1.052475	
1749449989932	-1.0740662	
1749449989933	-1.0825348	
1749449989934	-1.0723114	
1749449989935	-1.049881	
1749449989936	-1.027298	
1749449989937	-1.0198212	
1749449989938	-1.0317993	
1749449989939	-1.0525513	
1749449989940	-1.0603333	
1749449989941	-1.0425568	
1749449989942	-1.0067749	
1749449989943	-0.97198486	
1749449989944	-0.9552002	
1749449989945	-0.95939636	
1749449989946	-0.9777832	
1749449989947	-0.9968567	
1749449989948	-1.0050201	
1749449989949	-0.9972382	
1749449989950	-0.9817504	
1749449989951	-0.9706116	
1749449989952	-0.96702576	
1749449989953	-0.9625244	
1749449989954	-0.9465027	
1749449989955	-0.9213257	
1749449989956	-0.8995819	
1749449989957	-0.89523315	
1749449989958	-0.91148376	
1749449989959	-0.9390259	
1749449989960	-0.95977783	
1749449989961	-0.9585571	
1749449989962	-0.93330383	
1749449989963	-0.8997345	
1749449989964	-0.8818054	
1749449989965	-0.89294434	
1749449989966	-0.9261322	
1749449989967	-0.95947266	
1749449989968	-0.9752655	
1749449989969	-0.97106934	
1749449989970	-0.9598541	
1749449989971	-0.95680237	
1749449989972	-0.96984863	
1749449989973	-0.9938049	
1749449989974	-1.015091	
1749449989975	-1.0207367	
1749449989976	-1.00914	
1749449989977	-0.99220276	
1749449989978	-0.984726	
1749449989979	-0.9920502	
1749449989980	-1.0048676	
1749449989981	-1.0118103	
1749449989982	-1.0085297	
1749449989983	-1.0021973	
1749449989984	-1.0024261	
1749449989985	-1.017456	
1749449989986	-1.0493469	
1749449989987	-1.091156	
1749449989988	-1.128006	
1749449989989	-1.1444855	
1749449989990	-1.139679	
1749449989991	-1.122055	
1749449989992	-1.1019897	
1749449989993	-1.08078	
1749449989994	-1.0586548	
1749449989995	-1.0394287	
1749449989996	-1.0275269	
1749449989997	-1.0232544	
1749449989998	-1.0212708	
1749449989999	-1.0176849	
1749449990000	-1.007843	
1749449990001	-0.98846436	
1749449990002	-0.95970154	
1749449990003	-0.9313965	
1749449990004	-0.9159851	
1749449990005	-0.9182739	
1749449990006	-0.93185425	
1749449990007	-0.94673157	
1749449990008	-0.9577179	
1749449990009	-0.9629059	
1749449990010	-0.9628296	
1749449990011	-0.9585571	
1749449990012	-0.95466614	
1749449990013	-0.95588684	
1749449990014	-0.96343994	
1749449990015	-0.9738922	
1749449990016	-0.983963	
1749449990017	-0.9912872	
1749449990018	-0.99449164	
1749449990019	-0.99121094	
1749449990020	-0.9806061	
1749449990021	-0.9693146	
1749449990022	-0.96603394	
1749449990023	-0.97595215	
1749449990024	-0.9931945	
1749449990025	-1.0089874	
1749449990026	-1.0177612	
1749449990027	-1.0214996	
1749449990028	-1.0244751	
1749449990029	-1.0316467	
1749449990030	-1.0467529	
1749449990031	-1.0639191	
1749449990032	-1.0697937	
1749449990033	-1.0503387	
1749449990034	-1.0083008	
1749449990035	-0.9626007	
1749449990036	-0.9363556	
1749449990037	-0.93963623	
1749449990038	-0.96580505	
1749449990039	-0.99655145	
1749449990040	-1.0092926	
1749449990041	-0.99113464	
1749449990042	-0.946579	
1749449990043	-0.8999634	
1749449990044	-0.87783813	
1749449990045	-0.8919525	
1749449990046	-0.9315491	
1749449990047	-0.9755707	
1749449990048	-1.0046387	
1749449990049	-1.0110474	
1749449990050	-0.9992218	
1749449990051	-0.9816742	
1749449990052	-0.97343445	
1749449990053	-0.98083496	
1749449990054	-0.99823	
1749449990055	-1.0134125	
1749449990056	-1.0186768	
1749449990057	-1.013794	
1749449990058	-1.0038757	
1749449990059	-0.9914398	
1749449990060	-0.97877496	
1749449990061	-0.9693146	
1749449990062	-0.9655762	
1749449990063	-0.966568	
1749449990064	-0.9676361	
1749449990065	-0.96855164	
1749449990066	-0.97351074	
1749449990067	-0.9893036	
1749449990068	-1.016159	
1749449990069	-1.0515594	
1749449990070	-1.0879517	
1749449990071	-1.1128998	
1749449990072	-1.1128235	
1749449990073	-1.0825348	
1749449990074	-1.0344696	
1749449990075	-0.9900666	
1749449990076	-0.9677124	
1749449990077	-0.97091675	
1749449990078	-0.99296564	
1749449990079	-1.0191345	
1749449990080	-1.0332489	
1749449990081	-1.023941	
1749449990082	-0.9925843	
1749449990083	-0.9562683	
1749449990084	-0.9351349	
1749449990085	-0.9403229	
1749449990086	-0.9677887	
1749449990087	-1.0055542	
1749449990088	-1.0373688	
1749449990089	-1.0504913	
1749449990090	-1.0393524	
1749449990091	-1.0126495	
1749449990092	-0.9889985	
1749449990093	-0.98335266	
1749449990094	-0.996399	
1749449990095	-1.0158539	
1749449990096	-1.0280609	
1749449990097	-1.025238	
1749449990098	-1.0095215	
1749449990099	-0.98739624	
1749449990100	-0.97091675	
1749449990101	-0.9693146	
1749449990102	-0.9823608	
1749449990103	-0.9984588	
1749449990104	-1.0048676	
1749449990105	-1.000824	
1749449990106	-0.99716187	
1749449990107	-1.0080719	
1749449990108	-1.0368347	
1749449990109	-1.0793304	
1749449990110	-1.1213684	
1749449990111	-1.1438751	
1749449990112	-1.1318207	
1749449990113	-1.0866547	
1749449990114	-1.0295105	
1749449990115	-0.98480225	
1749449990116	-0.9651947	
1749449990117	-0.96580505	
1749449990118	-0.9754181	
1749449990119	-0.9838104	
1749449990120	-0.98731995	
1749449990121	-0.9856415	
1749449990122	-0.9832	
1749449990123	-0.9857178	
1749449990124	-0.9931183	
1749449990125	-1.0002899	
1749449990126	-1.0028839	
1749449990127	-1.0055542	
1749449990128	-1.0141754	
1749449990129	-1.0294342	
1749449990130	-1.0425568	
1749449990131	-1.0456085	
1749449990132	-1.0367584	
1749449990133	-1.0205078	
1749449990134	-1.0024261	
1749449990135	-0.9867096	
1749449990136	-0.97793573	
1749449990137	-0.9765625	
1749449990138	-0.97877496	
1749449990139	-0.9778595	
1749449990140	-0.97328186	
1749449990141	-0.9688568	
1749449990142	-0.9677887	
1749449990143	-0.96839905	
1749449990144	-0.9687805	
1749449990145	-0.9713745	
1749449990146	-0.9811402	
1749449990147	-1.0024261	
1749449990148	-1.03508	
1749449990149	-1.0800171	
1749449990150	-1.131897	
1749449990151	-1.1766815	
1749449990152	-1.1932373	
1749449990153	-1.1671448	
1749449990154	-1.1011505	
1749449990155	-1.0155487	
1749449990156	-0.93963623	
1749449990157	-0.90019226	
1749449990158	-0.9112549	
1749449990159	-0.9599304	
1749449990160	-1.0122681	
1749449990161	-1.0297394	
1749449990162	-0.9970092	
1749449990163	-0.933609	
1749449990164	-0.8805084	
1749449990165	-0.87280273	
1749449990166	-0.9196472	
1749449990167	-0.997696	
1749449990168	-1.0646057	
1749449990169	-1.0852051	
1749449990170	-1.0530853	
1749449990171	-0.9974671	
1749449990172	-0.9600067	
1749449990173	-0.96580505	
1749449990174	-1.0055542	
1749449990175	-1.0478973	
1749449990176	-1.0630035	
1749449990177	-1.042633	
1749449990178	-1.0017395	
1749449990179	-0.96580505	
1749449990180	-0.9550476	
1749449990181	-0.96939087	
1749449990182	-0.9905243	
1749449990183	-0.9961701	
1749449990184	-0.9821319	
1749449990185	-0.9638214	
1749449990186	-0.9635925	
1749449990187	-0.99021906	
1749449990188	-1.0358429	
1749449990189	-1.0845947	
1749449990190	-1.1186981	
1749449990191	-1.127243	
1749449990192	-1.1080933	
1749449990193	-1.0702515	
1749449990194	-1.0263824	
1749449990195	-0.9872436	
1749449990196	-0.9585571	
1749449990197	-0.9463501	
1749449990198	-0.9526062	
1749449990199	-0.9689331	
1749449990200	-0.97824097	
1749449990201	-0.9638214	
1749449990202	-0.9246826	
1749449990203	-0.8779144	
1749449990204	-0.8492279	
1749449990205	-0.8581543	
1749449990206	-0.9069824	
1749449990207	-0.97480774	
1749449990208	-1.027832	
1749449990209	-1.0371399	
1749449990210	-1.0005188	
1749449990211	-0.9461975	
1749449990212	-0.9133148	
1749449990213	-0.92422485	
1749449990214	-0.9701538	
1749449990215	-1.0194397	
1749449990216	-1.0396576	
1749449990217	-1.0205078	
1749449990218	-0.97747797	
1749449990219	-0.943985	
1749449990220	-0.94573975	
1749449990221	-0.98152155	
1749449990222	-1.0220337	
1749449990223	-1.0339355	
1749449990224	-1.0084534	
1749449990225	-0.9674835	
1749449990226	-0.9477997	
1749449990227	-0.9715271	
1749449990228	-1.0354614	
1749449990229	-1.109314	
1749449990230	-1.155014	
1749449990231	-1.1486053	
1749449990232	-1.0980225	
1749449990233	-1.036911	
1749449990234	-0.99807745	
1749449990235	-0.99174505	
1749449990236	-1.0040283	
1749449990237	-1.0164642	
1749449990238	-1.0179138	
1749449990239	-1.0088348	
1749449990240	-0.9925843	
1749449990241	-0.9740448	
1749449990242	-0.95581055	
1749449990243	-0.9377289	
1749449990244	-0.92025757	
1749449990245	-0.9085083	
1749449990246	-0.9112549	
1749449990247	-0.9301758	
1749449990248	-0.9560394	
1749449990249	-0.9729004	
1749449990250	-0.97320557	
1749449990251	-0.9615326	
1749449990252	-0.9503174	
1749449990253	-0.94818115	
1749449990254	-0.9574127	
1749449990255	-0.9740448	
1749449990256	-0.9889985	
1749449990257	-0.99403375	
1749449990258	-0.9867096	
1749449990259	-0.97366333	
1749449990260	-0.96328735	
1749449990261	-0.95962524	
1749449990262	-0.95939636	
1749449990263	-0.95947266	
1749449990264	-0.95977783	
1749449990265	-0.9641266	
1749449990266	-0.97343445	
1749449990267	-0.98731995	
1749449990268	-1.0061646	
1749449990269	-1.0274506	
1749449990270	-1.045227	
1749449990271	-1.0500336	
1749449990272	-1.0386658	
1749449990273	-1.0147858	
1749449990274	-0.9876251	
1749449990275	-0.96565247	
1749449990276	-0.9562683	
1749449990277	-0.9623718	
1749449990278	-0.97793573	
1749449990279	-0.98869324	
1749449990280	-0.9796142	
1749449990281	-0.94940186	
1749449990282	-0.90904236	
1749449990283	-0.87631226	
1749449990284	-0.86387634	
1749449990285	-0.878067	
1749449990286	-0.9146118	
1749449990287	-0.9598541	
1749449990288	-0.995636	
1749449990289	-1.0107422	
1749449990290	-1.008606	
1749449990291	-1.0006714	
1749449990292	-0.9970856	
1749449990293	-0.9989929	
1749449990294	-1.0031128	
1749449990295	-1.0042572	
1749449990296	-0.99937445	
1749449990297	-0.98793036	
1749449990298	-0.9752655	
1749449990299	-0.96855164	
1749449990300	-0.9701538	
1749449990301	-0.97488403	
1749449990302	-0.9751129	
1749449990303	-0.9702301	
1749449990304	-0.9653473	
1749449990305	-0.9664154	
1749449990306	-0.9738922	
1749449990307	-0.9864807	
1749449990308	-1.0015869	
1749449990309	-1.0157776	
1749449990310	-1.0227966	
1749449990311	-1.0189819	
1749449990312	-1.0069275	
1749449990313	-0.9918975	
1749449990314	-0.97740173	
1749449990315	-0.9625244	
1749449990316	-0.9485626	
1749449990317	-0.9371948	
1749449990318	-0.92948914	
1749449990319	-0.9225464	
1749449990320	-0.9158325	
1749449990321	-0.91300964	
1749449990322	-0.917511	
1749449990323	-0.92819214	
1749449990324	-0.93963623	
1749449990325	-0.947876	
1749449990326	-0.9501648	
1749449990327	-0.9463501	
1749449990328	-0.93788147	
1749449990329	-0.93193054	
1749449990330	-0.93460083	
1749449990331	-0.9447479	
1749449990332	-0.95321655	
1749449990333	-0.9515381	
1749449990334	-0.9415436	
1749449990335	-0.9308624	
1749449990336	-0.9275055	
1749449990337	-0.93307495	
1749449990338	-0.9424591	
1749449990339	-0.94581604	
1749449990340	-0.93559265	
1749449990341	-0.9121704	
1749449990342	-0.88760376	
1749449990343	-0.8770752	
1749449990344	-0.8882904	
1749449990345	-0.9148407	
1749449990346	-0.941391	
1749449990347	-0.9550476	
1749449990348	-0.9528351	
1749449990349	-0.94192505	
1749449990350	-0.93315125	
1749449990351	-0.93421936	
1749449990352	-0.9441376	
1749449990353	-0.9561157	
1749449990354	-0.96138	
1749449990355	-0.9590149	
1749449990356	-0.95443726	
1749449990357	-0.9542084	
1749449990358	-0.9580231	
1749449990359	-0.9586334	
1749449990360	-0.9489441	
1749449990361	-0.92697144	
1749449990362	-0.89881897	
1749449990363	-0.87501526	
1749449990364	-0.8654785	
1749449990365	-0.87272644	
1749449990366	-0.89149475	
1749449990367	-0.911026	
1749449990368	-0.92414856	
1749449990369	-0.929718	
1749449990370	-0.9314728	
1749449990371	-0.93292236	
1749449990372	-0.9351349	
1749449990373	-0.93818665	
1749449990374	-0.9415436	
1749449990375	-0.9450531	
1749449990376	-0.94970703	
1749449990377	-0.9579468	
1749449990378	-0.96847534	
1749449990379	-0.97602844	
1749449990380	-0.971756	
1749449990381	-0.9535217	
1749449990382	-0.92941284	
1749449990383	-0.91415405	
1749449990384	-0.91796875	
1749449990385	-0.93948364	
1749449990386	-0.96847534	
1749449990387	-0.99273676	
1749449990388	-1.0058594	
1749449990389	-1.0076904	
1749449990390	-1.0076904	
1749449990391	-1.013794	
1749449990392	-1.0250854	
1749449990393	-1.0292816	
1749449990394	-1.0160065	
1749449990395	-0.98793036	
1749449990396	-0.9589386	
1749449990397	-0.9439087	
1749449990398	-0.9474182	
1749449990399	-0.96351624	
1749449990400	-0.97694397	
1749449990401	-0.9740448	
1749449990402	-0.95069885	
1749449990403	-0.91903687	
1749449990404	-0.8982849	
1749449990405	-0.8996582	
1749449990406	-0.9184265	
1749449990407	-0.94039917	
1749449990408	-0.954895	
1749449990409	-0.958786	
1749449990410	-0.9562683	
1749449990411	-0.9525299	
1749449990412	-0.952301	
1749449990413	-0.9549713	
1749449990414	-0.95596313	
1749449990415	-0.9512329	
1749449990416	-0.9423065	
1749449990417	-0.9347534	
1749449990418	-0.9340668	
1749449990419	-0.9397125	
1749449990420	-0.94680786	
1749449990421	-0.95176697	
1749449990422	-0.9542084	
1749449990423	-0.9564209	
1749449990424	-0.95954895	
1749449990425	-0.9662628	
1749449990426	-0.9793091	
1749449990427	-1.0002899	
1749449990428	-1.024704	
1749449990429	-1.0486603	
1749449990430	-1.070404	
1749449990431	-1.0875702	
1749449990432	-1.0944366	
1749449990433	-1.0834503	
1749449990434	-1.0570526	
1749449990435	-1.0270691	
1749449990436	-1.0086823	
1749449990437	-1.0090637	
1749449990438	-1.0263062	
1749449990439	-1.0483551	
1749449990440	-1.0578156	
1749449990441	-1.0414886	
1749449990442	-1.0010529	
1749449990443	-0.95718384	
1749449990444	-0.933609	
1749449990445	-0.94177246	
1749449990446	-0.9729004	
1749449990447	-1.0095978	
1749449990448	-1.0344696	
1749449990449	-1.0385132	
1749449990450	-1.0227966	
1749449990451	-0.9980011	
1749449990452	-0.9786225	
1749449990453	-0.97206116	
1749449990454	-0.9749603	
1749449990455	-0.9783936	
1749449990456	-0.97610474	
1749449990457	-0.9661865	
1749449990458	-0.95092773	
1749449990459	-0.9326935	
1749449990460	-0.91682434	
1749449990461	-0.90797424	
1749449990462	-0.9069824	
1749449990463	-0.91033936	
1749449990464	-0.9146118	
1749449990465	-0.92048645	
1749449990466	-0.931015	
1749449990467	-0.94696045	
1749449990468	-0.96435547	
1749449990469	-0.97923285	
1749449990470	-0.986023	
1749449990471	-0.9806823	
1749449990472	-0.96214294	
1749449990473	-0.9352112	
1749449990474	-0.9088898	
1749449990475	-0.8924103	
1749449990476	-0.8909607	
1749449990477	-0.90515137	
1749449990478	-0.93063354	
1749449990479	-0.9577179	
1749449990480	-0.9738922	
1749449990481	-0.96839905	
1749449990482	-0.942688	
1749449990483	-0.91041565	
1749449990484	-0.8899689	
1749449990485	-0.8933258	
1749449990486	-0.91918945	
1749449990487	-0.9525299	
1749449990488	-0.97358704	
1749449990489	-0.9700012	
1749449990490	-0.94558716	
1749449990491	-0.91926575	
1749449990492	-0.91178894	
1749449990493	-0.9300232	
1749449990494	-0.9612274	
1749449990495	-0.9857941	
1749449990496	-0.9892273	
1749449990497	-0.97190857	
1749449990498	-0.9448242	
1749449990499	-0.92277527	
1749449990500	-0.9139252	
1749449990501	-0.9157562	
1749449990502	-0.9199524	
1749449990503	-0.92178345	
1749449990504	-0.9249115	
1749449990505	-0.9352875	
1749449990506	-0.95428467	
1749449990507	-0.97435	
1749449990508	-0.98815924	
1749449990509	-0.99273676	
1749449990510	-0.9912872	
1749449990511	-0.9880066	
1749449990512	-0.9851838	
1749449990513	-0.98052984	
1749449990514	-0.96946716	
1749449990515	-0.94963074	
1749449990516	-0.9250641	
1749449990517	-0.9059906	
1749449990518	-0.90156555	
1749449990519	-0.91278076	
1749449990520	-0.93078613	
1749449990521	-0.9466553	
1749449990522	-0.95588684	
1749449990523	-0.9603119	
1749449990524	-0.9626007	
1749449990525	-0.96450806	
1749449990526	-0.96580505	
1749449990527	-0.9651947	
1749449990528	-0.96214294	
1749449990529	-0.958786	
1749449990530	-0.9611511	
1749449990531	-0.9726715	
1749449990532	-0.9902954	
1749449990533	-1.0021973	
1749449990534	-1.0010529	
1749449990535	-0.98815924	
1749449990536	-0.9716034	
1749449990537	-0.95840454	
1749449990538	-0.9515381	
1749449990539	-0.9490204	
1749449990540	-0.94429016	
1749449990541	-0.932312	
1749449990542	-0.9132385	
1749449990543	-0.8961487	
1749449990544	-0.89157104	
1749449990545	-0.90400696	
1749449990546	-0.92674255	
1749449990547	-0.94970703	
1749449990548	-0.96466064	
1749449990549	-0.96855164	
1749449990550	-0.96321106	
1749449990551	-0.953598	
1749449990552	-0.946579	
1749449990553	-0.9459686	
1749449990554	-0.95191956	
1749449990555	-0.96183777	
1749449990556	-0.9751892	
1749449990557	-0.9899902	
1749449990558	-1.0010529	
1749449990559	-0.99838257	
1749449990560	-0.9763336	
1749449990561	-0.9388733	
1749449990562	-0.899353	
1749449990563	-0.872879	
1749449990564	-0.86868286	
1749449990565	-0.8867645	
1749449990566	-0.91690063	
1749449990567	-0.94444275	
1749449990568	-0.9564972	
1749449990569	-0.95222473	
1749449990570	-0.93940735	
1749449990571	-0.92826843	
1749449990572	-0.92308044	
1749449990573	-0.92315674	
1749449990574	-0.9250641	
1749449990575	-0.9249878	
1749449990576	-0.9222412	
1749449990577	-0.9186554	
1749449990578	-0.9184265	
1749449990579	-0.9223175	
1749449990580	-0.9274292	
1749449990581	-0.9287262	
1749449990582	-0.9259796	
1749449990583	-0.92300415	
1749449990584	-0.9248352	
1749449990585	-0.9321594	
1749449990586	-0.94215393	
1749449990587	-0.9516144	
1749449990588	-0.9598541	
1749449990589	-0.96710205	
1749449990590	-0.97343445	
1749449990591	-0.97717285	
1749449990592	-0.97343445	
1749449990593	-0.95825195	
1749449990594	-0.93170166	
1749449990595	-0.90278625	
1749449990596	-0.8824158	
1749449990597	-0.8769226	
1749449990598	-0.881958	
1749449990599	-0.8869171	
1749449990600	-0.88150024	
1749449990601	-0.86257935	
1749449990602	-0.8377075	
1749449990603	-0.81954956	
1749449990604	-0.8189392	
1749449990605	-0.83740234	
1749449990606	-0.8668518	
1749449990607	-0.894928	
1749449990608	-0.9134674	
1749449990609	-0.92033386	
1749449990610	-0.91903687	
1749449990611	-0.91400146	
1749449990612	-0.908432	
1749449990613	-0.9037018	
1749449990614	-0.9011078	
1749449990615	-0.901947	
1749449990616	-0.9070587	
1749449990617	-0.9137726	
1749449990618	-0.9172821	
1749449990619	-0.91423035	
1749449990620	-0.9043884	
1749449990621	-0.89302063	
1749449990622	-0.887146	
1749449990623	-0.89157104	
1749449990624	-0.9035492	
1749449990625	-0.91529846	
1749449990626	-0.920105	
1749449990627	-0.918808	
1749449990628	-0.91773987	
1749449990629	-0.9251404	
1749449990630	-0.9436798	
1749449990631	-0.96458435	
1749449990632	-0.9737396	
1749449990633	-0.9604645	
1749449990634	-0.92819214	
1749449990635	-0.8937073	
1749449990636	-0.8769989	
1749449990637	-0.8874512	
1749449990638	-0.9187317	
1749449990639	-0.94963074	
1749449990640	-0.95832825	
1749449990641	-0.9352875	
1749449990642	-0.8907318	
1749449990643	-0.8508301	
1749449990644	-0.83992004	
1749449990645	-0.8653259	
1749449990646	-0.91270447	
1749449990647	-0.95458984	
1749449990648	-0.96733093	
1749449990649	-0.9462738	
1749449990650	-0.90667725	
1749449990651	-0.87379456	
1749449990652	-0.8642578	
1749449990653	-0.8772278	
1749449990654	-0.89668274	
1749449990655	-0.9049225	
1749449990656	-0.8945465	
1749449990657	-0.87257385	
1749449990658	-0.854187	
1749449990659	-0.84983826	
1749449990660	-0.8579254	
1749449990661	-0.86639404	
1749449990662	-0.86486816	
1749449990663	-0.8517456	
1749449990664	-0.8352661	
1749449990665	-0.82595825	
1749449990666	-0.8306122	
1749449990667	-0.8480835	
1749449990668	-0.87142944	
1749449990669	-0.89172363	
1749449990670	-0.90385437	
1749449990671	-0.907135	
1749449990672	-0.90270996	
1749449990673	-0.89004517	
1749449990674	-0.86898804	
1749449990675	-0.8441162	
1749449990676	-0.8250427	
1749449990677	-0.82099915	
1749449990678	-0.8344269	
1749449990679	-0.85884094	
1749449990680	-0.8797455	
1749449990681	-0.88279724	
1749449990682	-0.86257935	
1749449990683	-0.8293915	
1749449990684	-0.80352783	
1749449990685	-0.80307007	
1749449990686	-0.83229065	
1749449990687	-0.8804321	
1749449990688	-0.9275818	
1749449990689	-0.9563446	
1749449990690	-0.9604645	
1749449990691	-0.9474182	
1749449990692	-0.9326935	
1749449990693	-0.92826843	
1749449990694	-0.93688965	
1749449990695	-0.95047	
1749449990696	-0.95832825	
1749449990697	-0.95314026	
1749449990698	-0.9363556	
1749449990699	-0.9157562	
1749449990700	-0.9011078	
1749449990701	-0.897522	
1749449990702	-0.90309143	
1749449990703	-0.911026	
1749449990704	-0.9138489	
1749449990705	-0.9085083	
1749449990706	-0.89805603	
1749449990707	-0.89012146	
1749449990708	-0.8907318	
1749449990709	-0.8998108	
1749449990710	-0.91018677	
1749449990711	-0.9132385	
1749449990712	-0.9035492	
1749449990713	-0.88279724	
1749449990714	-0.8577728	
1749449990715	-0.8364105	
1749449990716	-0.8218384	
1749449990717	-0.81214905	
1749449990718	-0.8049774	
1749449990719	-0.80093384	
1749449990720	-0.80314636	
1749449990721	-0.8129883	
1749449990722	-0.82847595	
1749449990723	-0.8431244	
1749449990724	-0.8493042	
1749449990725	-0.8428955	
1749449990726	-0.8290863	
1749449990727	-0.8192444	
1749449990728	-0.82359314	
1749449990729	-0.8432007	
1749449990730	-0.8704376	
1749449990731	-0.89408875	
1749449990732	-0.9056854	
1749449990733	-0.9033966	
1749449990734	-0.8932495	
1749449990735	-0.8859253	
1749449990736	-0.88920593	
1749449990737	-0.901947	
1749449990738	-0.91400146	
1749449990739	-0.9151459	
1749449990740	-0.9011078	
1749449990741	-0.87654114	
1749449990742	-0.8519745	
1749449990743	-0.8390808	
1749449990744	-0.84342957	
1749449990745	-0.8604431	
1749449990746	-0.87905884	
1749449990747	-0.89157104	
1749449990748	-0.8969879	
1749449990749	-0.90049744	
1749449990750	-0.9075165	
1749449990751	-0.91522217	
1749449990752	-0.91529846	
1749449990753	-0.8995819	
1749449990754	-0.8694458	
1749449990755	-0.8364868	
1749449990756	-0.8174896	
1749449990757	-0.82244873	
1749449990758	-0.845871	
1749449990759	-0.8654022	
1749449990760	-0.85861206	
1749449990761	-0.8200073	
1749449990762	-0.76423645	
1749449990763	-0.7195282	
1749449990764	-0.7097626	
1749449990765	-0.74142456	
1749449990766	-0.79948425	
1749449990767	-0.8546448	
1749449990768	-0.880661	
1749449990769	-0.87158203	
1749449990770	-0.84251404	
1749449990771	-0.8166504	
1749449990772	-0.8092499	
1749449990773	-0.821228	
1749449990774	-0.8430481	
1749449990775	-0.860672	
1749449990776	-0.8621216	
1749449990777	-0.847702	
1749449990778	-0.82839966	
1749449990779	-0.815506	
1749449990780	-0.81222534	
1749449990781	-0.81489563	
1749449990782	-0.81954956	
1749449990783	-0.8243561	
1749449990784	-0.82748413	
1749449990785	-0.82847595	
1749449990786	-0.8305359	
1749449990787	-0.8382416	
1749449990788	-0.8530426	
1749449990789	-0.871048	
1749449990790	-0.8867645	
1749449990791	-0.89508057	
1749449990792	-0.891037	
1749449990793	-0.87135315	
1749449990794	-0.84098816	
1749449990795	-0.8130646	
1749449990796	-0.80055237	
1749449990797	-0.8061218	
1749449990798	-0.82221985	
1749449990799	-0.83602905	
1749449990800	-0.8357239	
1749449990801	-0.815506	
1749449990802	-0.78048706	
1749449990803	-0.74760437	
1749449990804	-0.7355499	
1749449990805	-0.75172424	
1749449990806	-0.7872772	
1749449990807	-0.8252716	
1749449990808	-0.85014343	
1749449990809	-0.85388184	
1749449990810	-0.8380127	
1749449990811	-0.81466675	
1749449990812	-0.79963684	
1749449990813	-0.80184937	
1749449990814	-0.81848145	
1749449990815	-0.83976746	
1749449990816	-0.8571625	
1749449990817	-0.86624146	
1749449990818	-0.8653259	
1749449990819	-0.855484	
1749449990820	-0.84198	
1749449990821	-0.83099365	
1749449990822	-0.82489014	
1749449990823	-0.82237244	
1749449990824	-0.822525	
1749449990825	-0.82572937	
1749449990826	-0.831604	
1749449990827	-0.839386	
1749449990828	-0.8508301	
1749449990829	-0.86738586	
1749449990830	-0.8874512	
1749449990831	-0.9036255	
1749449990832	-0.90774536	
1749449990833	-0.8970642	
1749449990834	-0.8755493	
1749449990835	-0.85266113	
1749449990836	-0.83854675	
1749449990837	-0.8395386	
1749449990838	-0.85250854	
1749449990839	-0.86402893	
1749449990840	-0.8570862	
1749449990841	-0.82611084	
1749449990842	-0.7814789	
1749449990843	-0.74554443	
1749449990844	-0.74157715	
1749449990845	-0.7800293	
1749449990846	-0.8494568	
1749449990847	-0.9223938	
1749449990848	-0.9667969	
1749449990849	-0.9637451	
1749449990850	-0.91903687	
1749449990851	-0.85754395	
1749449990852	-0.81062317	
1749449990853	-0.7989502	
1749449990854	-0.82496643	
1749449990855	-0.8747864	
1749449990856	-0.9233093	
1749449990857	-0.9449005	
1749449990858	-0.92926025	
1749449990859	-0.8830261	
1749449990860	-0.823822	
1749449990861	-0.77308655	
1749449990862	-0.74783325	
1749449990863	-0.75668335	
1749449990864	-0.79429626	
1749449990865	-0.8428192	
1749449990866	-0.88249207	
1749449990867	-0.9011078	
1749449990868	-0.8985901	
1749449990869	-0.88272095	
1749449990870	-0.8631897	
1749449990871	-0.84861755	
1749449990872	-0.8431244	
1749449990873	-0.84472656	
1749449990874	-0.84999084	
1749449990875	-0.8596802	
1749449990876	-0.875473	
1749449990877	-0.89546204	
1749449990878	-0.9086609	
1749449990879	-0.90171814	
1749449990880	-0.86746216	
1749449990881	-0.81077576	
1749449990882	-0.7498932	
1749449990883	-0.7090759	
1749449990884	-0.70762634	
1749449990885	-0.7485199	
1749449990886	-0.8117676	
1749449990887	-0.86395264	
1749449990888	-0.88012695	
1749449990889	-0.8554077	
1749449990890	-0.8049011	
1749449990891	-0.7559967	
1749449990892	-0.73379517	
1749449990893	-0.75050354	
1749449990894	-0.7977295	
1749449990895	-0.8492279	
1749449990896	-0.87890625	
1749449990897	-0.87379456	
1749449990898	-0.8377838	
1749449990899	-0.7852936	
1749449990900	-0.734787	
1749449990901	-0.7043457	
1749449990902	-0.70274353	
1749449990903	-0.7244873	
1749449990904	-0.7575226	
1749449990905	-0.7926941	
1749449990906	-0.825119	
1749449990907	-0.8509064	
1749449990908	-0.8642578	
1749449990909	-0.8628082	
1749449990910	-0.84762573	
1749449990911	-0.8218384	
1749449990912	-0.79200745	
1749449990913	-0.7683563	
1749449990914	-0.762558	
1749449990915	-0.7777405	
1749449990916	-0.8023834	
1749449990917	-0.8190918	
1749449990918	-0.81718445	
1749449990919	-0.7962799	
1749449990920	-0.765152	
1749449990921	-0.73760986	
1749449990922	-0.7270813	
1749449990923	-0.7387543	
1749449990924	-0.76416016	
1749449990925	-0.78933716	
1749449990926	-0.8052826	
1749449990927	-0.8114624	
1749449990928	-0.8118439	
1749449990929	-0.8078766	
1749449990930	-0.80101013	
1749449990931	-0.79315186	
1749449990932	-0.7853699	
1749449990933	-0.77812195	
1749449990934	-0.77575684	
1749449990935	-0.7852173	
1749449990936	-0.80825806	
1749449990937	-0.83473206	
1749449990938	-0.8506775	
1749449990939	-0.8483124	
1749449990940	-0.83000183	
1749449990941	-0.8065796	
1749449990942	-0.79078674	
1749449990943	-0.791626	
1749449990944	-0.8074951	
1749449990945	-0.8252716	
1749449990946	-0.8305359	
1749449990947	-0.8216858	
1749449990948	-0.8115387	
1749449990949	-0.81565857	
1749449990950	-0.8364105	
1749449990951	-0.8629608	
1749449990952	-0.8782196	
1749449990953	-0.86875916	
1749449990954	-0.8351135	
1749449990955	-0.79574585	
1749449990956	-0.7772064	
1749449990957	-0.79460144	
1749449990958	-0.83724976	
1749449990959	-0.8759308	
1749449990960	-0.8846283	
1749449990961	-0.85601807	
1749449990962	-0.80581665	
1749449990963	-0.7627106	
1749449990964	-0.7524109	
1749449990965	-0.7814789	
1749449990966	-0.8315277	
1749449990967	-0.87127686	
1749449990968	-0.8810425	
1749449990969	-0.86402893	
1749449990970	-0.83984375	
1749449990971	-0.82748413	
1749449990972	-0.8338928	
1749449990973	-0.8519745	
1749449990974	-0.8669281	
1749449990975	-0.86586	
1749449990976	-0.84716797	
1749449990977	-0.82221985	
1749449990978	-0.8041382	
1749449990979	-0.79566956	
1749449990980	-0.78933716	
1749449990981	-0.7789612	
1749449990982	-0.76560974	
1749449990983	-0.7544708	
1749449990984	-0.74935913	
1749449990985	-0.7524109	
1749449990986	-0.7627106	
1749449990987	-0.7752991	
1749449990988	-0.783844	
1749449990989	-0.7875824	
1749449990990	-0.79185486	
1749449990991	-0.79933167	
1749449990992	-0.80444336	
1749449990993	-0.80078125	
1749449990994	-0.7901001	
1749449990995	-0.78048706	
1749449990996	-0.77835083	
1749449990997	-0.78590393	
1749449990998	-0.8016968	
1749449990999	-0.81970215	
1749449991000	-0.8288574	
1749449991001	-0.8204651	
1749449991002	-0.7991028	
1749449991003	-0.77819824	
1749449991004	-0.76919556	
1749449991005	-0.7749939	
1749449991006	-0.7926941	
1749449991007	-0.81710815	
1749449991008	-0.8404541	
1749449991009	-0.85372925	
1749449991010	-0.85395813	
1749449991011	-0.8455658	
1749449991012	-0.8343506	
1749449991013	-0.82336426	
1749449991014	-0.8141327	
1749449991015	-0.8105469	
1749449991016	-0.8155823	
1749449991017	-0.8256531	
1749449991018	-0.83335876	
1749449991019	-0.8331299	
1749449991020	-0.82351685	
1749449991021	-0.80574036	
1749449991022	-0.7839203	
1749449991023	-0.76675415	
1749449991024	-0.762558	
1749449991025	-0.77171326	
1749449991026	-0.78681946	
1749449991027	-0.80062866	
1749449991028	-0.8112335	
1749449991029	-0.82077026	
1749449991030	-0.8289337	
1749449991031	-0.8331299	
1749449991032	-0.83122253	
1749449991033	-0.8213043	
1749449991034	-0.8029938	
1749449991035	-0.78186035	
1749449991036	-0.76942444	
1749449991037	-0.774765	
1749449991038	-0.79208374	
1749449991039	-0.80337524	
1749449991040	-0.7948303	
1749449991041	-0.7652283	
1749449991042	-0.72631836	
1749449991043	-0.6958771	
1749449991044	-0.6904602	
1749449991045	-0.7157135	
1749449991046	-0.7582855	
1749449991047	-0.79299927	
1749449991048	-0.8027649	
1749449991049	-0.790329	
1749449991050	-0.7714844	
1749449991051	-0.76042175	
1749449991052	-0.76293945	
1749449991053	-0.7765198	
1749449991054	-0.79193115	
1749449991055	-0.7966614	
1749449991056	-0.7865906	
1749449991057	-0.7711792	
1749449991058	-0.7632446	
1749449991059	-0.7652283	
1749449991060	-0.76927185	
1749449991061	-0.76927185	
1749449991062	-0.76530457	
1749449991063	-0.75920105	
1749449991064	-0.7534027	
1749449991065	-0.75294495	
1749449991066	-0.7623291	
1749449991067	-0.77926636	
1749449991068	-0.7949066	
1749449991069	-0.8039093	
1749449991070	-0.8074188	
1749449991071	-0.8073425	
1749449991072	-0.8017731	
1749449991073	-0.7904053	
1749449991074	-0.7784271	
1749449991075	-0.77171326	
1749449991076	-0.7698822	
1749449991077	-0.769577	
1749449991078	-0.7702637	
1749449991079	-0.7710266	
1749449991080	-0.76690674	
1749449991081	-0.7537842	
1749449991082	-0.73638916	
1749449991083	-0.72387695	
1749449991084	-0.7211304	
1749449991085	-0.727005	
1749449991086	-0.7398987	
1749449991087	-0.7585907	
1749449991088	-0.7774353	
1749449991089	-0.7875824	
1749449991090	-0.7862091	
1749449991091	-0.778656	
1749449991092	-0.7707977	
1749449991093	-0.76423645	
1749449991094	-0.76026917	
1749449991095	-0.7626343	
1749449991096	-0.77186584	
1749449991097	-0.7803345	
1749449991098	-0.7811737	
1749449991099	-0.77415466	
1749449991100	-0.7626343	
1749449991101	-0.74790955	
1749449991102	-0.73272705	
1749449991103	-0.72494507	
1749449991104	-0.73158264	
1749449991105	-0.7494354	
1749449991106	-0.7688141	
1749449991107	-0.78338623	
1749449991108	-0.79338074	
1749449991109	-0.8001709	
1749449991110	-0.8040619	
1749449991111	-0.80718994	
1749449991112	-0.81100464	
1749449991113	-0.80947876	
1749449991114	-0.7923126	
1749449991115	-0.7588959	
1749449991116	-0.723114	
1749449991117	-0.7009125	
1749449991118	-0.69862366	
1749449991119	-0.71250916	
1749449991120	-0.73410034	
1749449991121	-0.752182	
1749449991122	-0.7559967	
1749449991123	-0.74531555	
1749449991124	-0.7321167	
1749449991125	-0.728302	
1749449991126	-0.73394775	
1749449991127	-0.74134827	
1749449991128	-0.74645996	
1749449991129	-0.75157166	
1749449991130	-0.7570648	
1749449991131	-0.76049805	
1749449991132	-0.76148987	
1749449991133	-0.7607269	
1749449991134	-0.75561523	
1749449991135	-0.74394226	
1749449991136	-0.7311249	
1749449991137	-0.72753906	
1749449991138	-0.7357788	
1749449991139	-0.7458496	
1749449991140	-0.7472229	
1749449991141	-0.73776245	
1749449991142	-0.7217407	
1749449991143	-0.70518494	
1749449991144	-0.6965637	
1749449991145	-0.70381165	
1749449991146	-0.725708	
1749449991147	-0.75035095	
1749449991148	-0.766449	
1749449991149	-0.77316284	
1749449991150	-0.77667236	
1749449991151	-0.7796478	
1749449991152	-0.77941895	
1749449991153	-0.7746124	
1749449991154	-0.76652527	
1749449991155	-0.7561493	
1749449991156	-0.74638367	
1749449991157	-0.74508667	
1749449991158	-0.7582855	
1749449991159	-0.7785797	
1749449991160	-0.7865906	
1749449991161	-0.77041626	
1749449991162	-0.7342529	
1749449991163	-0.6939697	
1749449991164	-0.66833496	
1749449991165	-0.6715393	
1749449991166	-0.7065582	
1749449991167	-0.7582092	
1749449991168	-0.7989502	
1749449991169	-0.8100128	
1749449991170	-0.79437256	
1749449991171	-0.77049255	
1749449991172	-0.75553894	
1749449991173	-0.75660706	
1749449991174	-0.77171326	
1749449991175	-0.7917023	
1749449991176	-0.80093384	
1749449991177	-0.7901764	
1749449991178	-0.7663727	
1749449991179	-0.7445526	
1749449991180	-0.7333374	
1749449991181	-0.73005676	
1749449991182	-0.73013306	
1749449991183	-0.7310486	
1749449991184	-0.7307434	
1749449991185	-0.72753906	
1749449991186	-0.725708	
1749449991187	-0.7330322	
1749449991188	-0.75050354	
1749449991189	-0.76934814	
1749449991190	-0.7810211	
1749449991191	-0.7836151	
1749449991192	-0.77796936	
1749449991193	-0.76301575	
1749449991194	-0.7411957	
1749449991195	-0.7220459	
1749449991196	-0.71502686	
1749449991197	-0.7197571	
1749449991198	-0.7285309	
1749449991199	-0.7337189	
1749449991200	-0.72891235	
1749449991201	-0.70892334	
1749449991202	-0.67588806	
1749449991203	-0.6453705	
1749449991204	-0.63705444	
1749449991205	-0.65711975	
1749449991206	-0.6941223	
1749449991207	-0.73043823	
1749449991208	-0.7523346	
1749449991209	-0.7532501	
1749449991210	-0.7359314	
1749449991211	-0.7146454	
1749449991212	-0.7069397	
1749449991213	-0.717926	
1749449991214	-0.7355499	
1749449991215	-0.74508667	
1749449991216	-0.7423401	
1749449991217	-0.7319641	
1749449991218	-0.72013855	
1749449991219	-0.7131958	
1749449991220	-0.7158661	
1749449991221	-0.725708	
1749449991222	-0.7311249	
1749449991223	-0.72288513	
1749449991224	-0.7054901	
1749449991225	-0.69236755	
1749449991226	-0.6931305	
1749449991227	-0.70892334	
1749449991228	-0.7358551	
1749449991229	-0.76690674	
1749449991230	-0.79063416	
1749449991231	-0.79582214	
1749449991232	-0.78300476	
1749449991233	-0.7620239	
1749449991234	-0.74180603	
1749449991235	-0.72540283	
1749449991236	-0.716095	
1749449991237	-0.71907043	
1749449991238	-0.7335663	
1749449991239	-0.7474518	
1749449991240	-0.7485962	
1749449991241	-0.73410034	
1749449991242	-0.70739746	
1749449991243	-0.67626953	
1749449991244	-0.65338135	
1749449991245	-0.6542206	
1749449991246	-0.68367004	
1749449991247	-0.72631836	
1749449991248	-0.7574463	
1749449991249	-0.76316833	
1749449991250	-0.7460785	
1749449991251	-0.7192993	
1749449991252	-0.7006836	
1749449991253	-0.7057953	
1749449991254	-0.72036743	
1749449991255	-0.6890869	
1749449991256	-0.5619049	
1749449991257	-0.3289795	
1749449991258	-0.02609253	
1749449991259	0.2545929	
1749449991260	0.40168762	
1749449991261	0.35049438	
1749449991262	0.11878967	
1749449991263	-0.19134521	
1749449991264	-0.42655945	
1749449991265	-0.47019958	
1749449991266	-0.31440735	
1749449991267	-0.049972534	
1749449991268	0.18478394	
1749449991269	0.263443	
1749449991270	0.15266418	
1749449991271	-0.0541687	
1749449991272	-0.2166748	
1749449991273	-0.23918152	
1749449991274	-0.111465454	
1749449991275	0.076828	
1749449991276	0.19165039	
1749449991277	0.16105652	
1749449991278	0.017242432	
1749449991279	-0.13961792	
1749449991280	-0.1978302	
1749449991281	-0.113220215	
1749449991282	0.046539307	
1749449991283	0.16540527	
1749449991284	0.16586304	
1749449991285	0.04875183	
1749449991286	-0.10116577	
1749449991287	-0.17272949	
1749449991288	-0.12321472	
1749449991289	-0.0011444092	
1749449991290	0.10383606	
1749449991291	0.11627197	
1749449991292	0.029067993	
1749449991293	-0.08148193	
1749449991294	-0.12786865	
1749449991295	-0.08239746	
1749449991296	0.019760132	
1749449991297	0.10215759	
1749449991298	0.09902954	
1749449991299	0.020751953	
1749449991300	-0.06271362	
1749449991301	-0.09147644	
1749449991302	-0.047302246	
1749449991303	0.034179688	
1749449991304	0.07904053	
1749449991305	0.047607422	
1749449991306	-0.030441284	
1749449991307	-0.0982666	
1749449991308	-0.10826111	
1749449991309	-0.05027771	
1749449991310	0.025863647	
1749449991311	0.057144165	
1749449991312	0.029067993	
1749449991313	-0.02960205	
1749449991314	-0.070877075	
1749449991315	-0.05393982	
1749449991316	0.010375977	
1749449991317	0.066604614	
1749449991318	0.07286072	
1749449991319	0.026626587	
1749449991320	-0.042037964	
1749449991321	-0.08155823	
1749449991322	-0.06271362	
1749449991323	-0.010757446	
1749449991324	0.029907227	
1749449991325	0.032577515	
1749449991326	-0.005264282	
1749449991327	-0.051498413	
1749449991328	-0.06317139	
1749449991329	-0.03616333	
1749449991330	0.0010681152	
1749449991331	0.021514893	
1749449991332	0.006942749	
1749449991333	-0.032958984	
1749449991334	-0.058441162	
1749449991335	-0.04798889	
1749449991336	-0.016174316	
1749449991337	0.013122559	
1749449991338	0.014953613	
1749449991339	-0.019302368	
1749449991340	-0.058441162	
1749449991341	-0.0655365	
1749449991342	-0.036697388	
1749449991343	0.011138916	
1749449991344	0.048675537	
1749449991345	0.044631958	
1749449991346	0.0034332275	
1749449991347	-0.03829956	
1749449991348	-0.055999756	
1749449991349	-0.04310608	
1749449991350	-0.009002686	
1749449991351	0.015106201	
1749449991352	0.009918213	
1749449991353	-0.009460449	
1749449991354	-0.026397705	
1749449991355	-0.04562378	
1749449991356	-0.08155823	
1749449991357	-0.15205383	
1749449991358	-0.27412415	
1749449991359	-0.42739868	
1749449991360	-0.54611206	
1749449991361	-0.57533264	
1749449991362	-0.5039978	
1749449991363	-0.366745	
1749449991364	-0.24009705	
1749449991365	-0.1940918	
1749449991366	-0.2457428	
1749449991367	-0.3629303	
1749449991368	-0.47737122	
1749449991369	-0.5213928	
1749449991370	-0.48171997	
1749449991371	-0.40145874	
1749449991372	-0.33943176	
1749449991373	-0.33226013	
1749449991374	-0.38253784	
1749449991375	-0.4611206	
1749449991376	-0.5192566	
1749449991377	-0.5241394	
1749449991378	-0.48675537	
1749449991379	-0.4459381	
1749449991380	-0.4309082	
1749449991381	-0.446167	
1749449991382	-0.4801178	
1749449991383	-0.51361084	
1749449991384	-0.5268097	
1749449991385	-0.5150604	
1749449991386	-0.49873355	
1749449991387	-0.50323486	
1749449991388	-0.5316925	
1749449991389	-0.56510925	
1749449991390	-0.5835724	
1749449991391	-0.5792999	
1749449991392	-0.55274963	
1749449991393	-0.51345825	
1749449991394	-0.48187256	
1749449991395	-0.47546387	
1749449991396	-0.48828125	
1749449991397	-0.4964447	
1749449991398	-0.48461914	
1749449991399	-0.45562744	
1749449991400	-0.41801453	
1749449991401	-0.3778839	
1749449991402	-0.3453064	
1749449991403	-0.32920837	
1749449991404	-0.32531738	
1749449991405	-0.32188416	
1749449991406	-0.3175354	
1749449991407	-0.3226471	
1749449991408	-0.33981323	
1749449991409	-0.3578186	
1749449991410	-0.366745	
1749449991411	-0.36689758	
1749449991412	-0.36125183	
1749449991413	-0.35202026	
1749449991414	-0.3477478	
1749449991415	-0.36026	
1749449991416	-0.38703918	
1749449991417	-0.40870667	
1749449991418	-0.41175842	
1749449991419	-0.40245056	
1749449991420	-0.393219	
1749449991421	-0.38955688	
1749449991422	-0.39421082	
1749449991423	-0.41030884	
1749449991424	-0.43190002	
1749449991425	-0.44448853	
1749449991426	-0.44502258	
1749449991427	-0.44815063	
1749449991428	-0.46707153	
1749449991429	-0.49720764	
1749449991430	-0.52482605	
1749449991431	-0.5406189	
1749449991432	-0.5380249	
1749449991433	-0.5117035	
1749449991434	-0.46920776	
1749449991435	-0.43304443	
1749449991436	-0.4208374	
1749449991437	-0.42823792	
1749449991438	-0.43952942	
1749449991439	-0.44487	
1749449991440	-0.44006348	
1749449991441	-0.42015076	
1749449991442	-0.38894653	
1749449991443	-0.36460876	
1749449991444	-0.36315918	
1749449991445	-0.38223267	
1749449991446	-0.40893555	
1749449991447	-0.43533325	
1749449991448	-0.4572296	
1749449991449	-0.4660797	
1749449991450	-0.4574585	
1749449991451	-0.44151306	
1749449991452	-0.4333496	
1749449991453	-0.43624878	
1749449991454	-0.44433594	
1749449991455	-0.45463562	
1749449991456	-0.46577454	
1749449991457	-0.46852112	
1749449991458	-0.45463562	
1749449991459	-0.4320526	
1749449991460	-0.417099	
1749449991461	-0.41519165	
1749449991462	-0.41931152	
1749449991463	-0.42419434	
1749449991464	-0.42900085	
1749449991465	-0.42945862	
1749449991466	-0.42312622	
1749449991467	-0.42053223	
1749449991468	-0.4358673	
1749449991469	-0.46669006	
1749449991470	-0.4950714	
1749449991471	-0.5075073	
1749449991472	-0.5038452	
1749449991473	-0.48721313	
1749449991474	-0.4612732	
1749449991475	-0.43762207	
1749449991476	-0.43067932	
1749449991477	-0.44006348	
1749449991478	-0.45028687	
1749449991479	-0.44937134	
1749449991480	-0.43701172	
1749449991481	-0.41481018	
1749449991482	-0.3829193	
1749449991483	-0.35110474	
1749449991484	-0.33828735	
1749449991485	-0.35362244	
1749449991486	-0.38772583	
1749449991487	-0.4257202	
1749449991488	-0.45806885	
1749449991489	-0.4761505	
1749449991490	-0.47157288	
1749449991491	-0.44937134	
1749449991492	-0.4297638	
1749449991493	-0.42755127	
1749449991494	-0.43876648	
1749449991495	-0.45181274	
1749449991496	-0.46043396	
1749449991497	-0.4612732	
1749449991498	-0.44952393	
1749449991499	-0.42900085	
1749449991500	-0.41481018	
1749449991501	-0.41656494	
1749449991502	-0.42694092	
1749449991503	-0.43266296	
1749449991504	-0.43128967	
1749449991505	-0.42739868	
1749449991506	-0.42266846	
1749449991507	-0.4194641	
1749449991508	-0.42694092	
1749449991509	-0.45043945	
1749449991510	-0.47920227	
1749449991511	-0.49705505	
1749449991512	-0.49942017	
1749449991513	-0.49011227	
1749449991514	-0.46897888	
1749449991515	-0.43670654	
1749449991516	-0.4055786	
1749449991517	-0.39016724	
1749449991518	-0.39131165	
1749449991519	-0.39985657	
1749449991520	-0.4106903	
1749449991521	-0.42182922	
1749449991522	-0.4257965	
1749449991523	-0.415802	
1749449991524	-0.39901733	
1749449991525	-0.39100647	
1749449991526	-0.39672852	
1749449991527	-0.40863037	
1749449991528	-0.42160034	
1749449991529	-0.4360199	
1749449991530	-0.4471588	
1749449991531	-0.4472351	
1749449991532	-0.43884277	
1749449991533	-0.4322815	
1749449991534	-0.4296112	
1749449991535	-0.42373657	
1749449991536	-0.41381836	
1749449991537	-0.4081726	
1749449991538	-0.41000366	
1749449991539	-0.41259766	
1749449991540	-0.4121399	
1749449991541	-0.41107178	
1749449991542	-0.40802002	
1749449991543	-0.39611816	
1749449991544	-0.3779602	
1749449991545	-0.368042	
1749449991546	-0.37628174	
1749449991547	-0.39901733	
1749449991548	-0.42808533	
1749449991549	-0.45928955	
1749449991550	-0.4851532	
1749449991551	-0.49247745	
1749449991552	-0.47698975	
1749449991553	-0.4510498	
1749449991554	-0.4297638	
1749449991555	-0.41809082	
1749449991556	-0.41656494	
1749449991557	-0.42778015	
1749449991558	-0.4473877	
1749449991559	-0.45822144	
1749449991560	-0.44631958	
1749449991561	-0.41549683	
1749449991562	-0.3791046	
1749449991563	-0.34729004	
1749449991564	-0.3277588	
1749449991565	-0.3302002	
1749449991566	-0.35614014	
1749449991567	-0.39016724	
1749449991568	-0.41358948	
1749449991569	-0.42236328	
1749449991570	-0.4232788	
1749449991571	-0.41984558	
1749449991572	-0.41297913	
1749449991573	-0.40908813	
1749449991574	-0.41404724	
1749449991575	-0.42137146	
1749449991576	-0.42037964	
1749449991577	-0.41290283	
1749449991578	-0.4082489	
1749449991579	-0.40725708	
1749449991580	-0.40344238	
1749449991581	-0.3969574	
1749449991582	-0.39367676	
1749449991583	-0.39245605	
1749449991584	-0.38841248	
1749449991585	-0.38505554	
1749449991586	-0.39123535	
1749449991587	-0.40634155	
1749449991588	-0.42129517	
1749449991589	-0.4323578	
1749449991590	-0.44410706	
1749449991591	-0.45455933	
1749449991592	-0.45410156	
1749449991593	-0.4409027	
1749449991594	-0.42366028	
1749449991595	-0.40855408	
1749449991596	-0.39497375	
1749449991597	-0.3866577	
1749449991598	-0.39123535	
1749449991599	-0.40351868	
1749449991600	-0.4055786	
1749449991601	-0.38856506	
1749449991602	-0.36094666	
1749449991603	-0.3351593	
1749449991604	-0.318985	
1749449991605	-0.3202057	
1749449991606	-0.34492493	
1749449991607	-0.3842926	
1749449991608	-0.415802	
1749449991609	-0.42564392	
1749449991610	-0.42022705	
1749449991611	-0.41229248	
1749449991612	-0.4071808	
1749449991613	-0.40763855	
1749449991614	-0.41854858	
1749449991615	-0.43624878	
1749449991616	-0.4459381	
1749449991617	-0.44013977	
1749449991618	-0.42808533	
1749449991619	-0.42007446	
1749449991620	-0.41412354	
1749449991621	-0.40611267	
1749449991622	-0.39970398	
1749449991623	-0.3980255	
1749449991624	-0.39611816	
1749449991625	-0.39169312	
1749449991626	-0.39352417	
1749449991627	-0.4082489	
1749449991628	-0.42922974	
1749449991629	-0.4459381	
1749449991630	-0.45661926	
1749449991631	-0.46203613	
1749449991632	-0.4572296	
1749449991633	-0.44006348	
1749449991634	-0.42144775	
1749449991635	-0.4145813	
1749449991636	-0.41915894	
1749449991637	-0.42755127	
1749449991638	-0.4373169	
1749449991639	-0.4471588	
1749449991640	-0.44784546	
1749449991641	-0.43197632	
1749449991642	-0.40763855	
1749449991643	-0.38978577	
1749449991644	-0.38368225	
1749449991645	-0.38658142	
1749449991646	-0.3983307	
1749449991647	-0.41870117	
1749449991648	-0.43792725	
1749449991649	-0.44425964	
1749449991650	-0.43945312	
1749449991651	-0.4347229	
1749449991652	-0.43403625	
1749449991653	-0.43289185	
1749449991654	-0.4309082	
1749449991655	-0.43304443	
1749449991656	-0.43815613	
1749449991657	-0.44059753	
1749449991658	-0.4434204	
1749449991659	-0.45509338	
1749449991660	-0.47325134	
1749449991661	-0.48477173	
1749449991662	-0.48339844	
1749449991663	-0.475235	
1749449991664	-0.46691895	
1749449991665	-0.46066284	
1749449991666	-0.4623413	
1749449991667	-0.4800415	
1749449991668	-0.50964355	
1749449991669	-0.5339813	
1749449991670	-0.5416107	
1749449991671	-0.5352783	
1749449991672	-0.5201721	
1749449991673	-0.49774167	
1749449991674	-0.4736328	
1749449991675	-0.46081543	
1749449991676	-0.46447754	
1749449991677	-0.47439575	
1749449991678	-0.47935486	
1749449991679	-0.4762268	
1749449991680	-0.4624939	
1749449991681	-0.43289185	
1749449991682	-0.39230347	
1749449991683	-0.3605652	
1749449991684	-0.35324097	
1749449991685	-0.366745	
1749449991686	-0.3879547	
1749449991687	-0.40847778	
1749449991688	-0.4222107	
1749449991689	-0.422287	
1749449991690	-0.4108429	
1749449991691	-0.4032898	
1749449991692	-0.41114807	
1749449991693	-0.42770386	
1749449991694	-0.43884277	
1749449991695	-0.4411316	
1749449991696	-0.43930054	
1749449991697	-0.43441772	
1749449991698	-0.4270172	
1749449991699	-0.42388916	
1749449991700	-0.42861938	
1749449991701	-0.43151855	
1749449991702	-0.42266846	
1749449991703	-0.40763855	
1749449991704	-0.40023804	
1749449991705	-0.40489197	
1749449991706	-0.41770935	
1749449991707	-0.43777466	
1749449991708	-0.46463013	
1749449991709	-0.48912048	
1749449991710	-0.50079346	
1749449991711	-0.50109863	
1749449991712	-0.49697876	
1749449991713	-0.48721313	
1749449991714	-0.46569824	
1749449991715	-0.43663025	
1749449991716	-0.41275024	
1749449991717	-0.3994751	
1749449991718	-0.3919983	
1749449991719	-0.3879547	
1749449991720	-0.3894806	
1749449991721	-0.3929901	
1749449991722	-0.39115906	
1749449991723	-0.38627625	
1749449991724	-0.38734436	
1749449991725	-0.39360046	
1749449991726	-0.39421082	
1749449991727	-0.3855133	
1749449991728	-0.37696838	
1749449991729	-0.37620544	
1749449991730	-0.3816223	
1749449991731	-0.39031982	
1749449991732	-0.4008484	
1749449991733	-0.4056549	
1749449991734	-0.3942871	
1749449991735	-0.37025452	
1749449991736	-0.35362244	
1749449991737	-0.358963	
1749449991738	-0.38002014	
1749449991739	-0.40122986	
1749449991740	-0.41152954	
1749449991741	-0.40420532	
1749449991742	-0.37734985	
1749449991743	-0.34378052	
1749449991744	-0.32791138	
1749449991745	-0.34194946	
1749449991746	-0.37391663	
1749449991747	-0.40428162	
1749449991748	-0.42625427	
1749449991749	-0.44197083	
1749449991750	-0.45150757	
1749449991751	-0.4560852	
1749449991752	-0.46066284	
1749449991753	-0.46279907	
1749449991754	-0.45051575	
1749449991755	-0.41984558	
1749449991756	-0.3881836	
1749449991757	-0.3779602	
1749449991758	-0.39169312	
1749449991759	-0.41389465	
1749449991760	-0.42686462	
1749449991761	-0.4184723	
1749449991762	-0.38475037	
1749449991763	-0.33851624	
1749449991764	-0.31021118	
1749449991765	-0.32333374	
1749449991766	-0.36895752	
1749449991767	-0.41549683	
1749449991768	-0.4385376	
1749449991769	-0.43319702	
1749449991770	-0.40740967	
1749449991771	-0.37734985	
1749449991772	-0.36392212	
1749449991773	-0.3768158	
1749449991774	-0.40130615	
1749449991775	-0.41305542	
1749449991776	-0.40382385	
1749449991777	-0.38383484	
1749449991778	-0.3639984	
1749449991779	-0.34698486	
1749449991780	-0.335083	
1749449991781	-0.3302765	
1749449991782	-0.32699585	
1749449991783	-0.31784058	
1749449991784	-0.30807495	
1749449991785	-0.31181335	
1749449991786	-0.33241272	
1749449991787	-0.35934448	
1749449991788	-0.38345337	
1749449991789	-0.40496826	
1749449991790	-0.42251587	
1749449991791	-0.4296875	
1749449991792	-0.42625427	
1749449991793	-0.42060852	
1749449991794	-0.41618347	
1749449991795	-0.40916443	
1749449991796	-0.40107727	
1749449991797	-0.40245056	
1749449991798	-0.4147339	
1749449991799	-0.42297363	
1749449991800	-0.4131317	
1749449991801	-0.3855896	
1749449991802	-0.3491211	
1749449991803	-0.31471252	
1749449991804	-0.29777527	
1749449991805	-0.31402588	
1749449991806	-0.36064148	
1749449991807	-0.41046143	
1749449991808	-0.43670654	
1749449991809	-0.43525696	
1749449991810	-0.418396	
1749449991811	-0.3994751	
1749449991812	-0.38970947	
1749449991813	-0.39718628	
1749449991814	-0.4158783	
1749449991815	-0.42442322	
1749449991816	-0.4096985	
1749449991817	-0.38269043	
1749449991818	-0.3640747	
1749449991819	-0.36109924	
1749449991820	-0.3679657	
1749449991821	-0.3780365	
1749449991822	-0.38352966	
1749449991823	-0.3741455	
1749449991824	-0.34934998	
1749449991825	-0.32684326	
1749449991826	-0.32577515	
1749449991827	-0.34675598	
1749449991828	-0.37704468	
1749449991829	-0.40740967	
1749449991830	-0.4335785	
1749449991831	-0.44670105	
1749449991832	-0.4398346	
1749449991833	-0.4195404	
1749449991834	-0.39848328	
1749449991835	-0.38009644	
1749449991836	-0.36315918	
1749449991837	-0.3540802	
1749449991838	-0.36087036	
1749449991839	-0.3778839	
1749449991840	-0.3904724	
1749449991841	-0.39352417	
1749449991842	-0.39108276	
1749449991843	-0.38459778	
1749449991844	-0.37261963	
1749449991845	-0.36231995	
1749449991846	-0.36354065	
1749449991847	-0.37460327	
1749449991848	-0.3856659	
1749449991849	-0.39413452	
1749449991850	-0.4056549	
1749449991851	-0.41885376	
1749449991852	-0.42442322	
1749449991853	-0.4206848	
1749449991854	-0.41526794	
1749449991855	-0.41114807	
1749449991856	-0.40473938	
1749449991857	-0.39749146	
1749449991858	-0.39649963	
1749449991859	-0.39924622	
1749449991860	-0.39390564	
1749449991861	-0.37757874	
1749449991862	-0.36117554	
1749449991863	-0.35316467	
1749449991864	-0.35209656	
1749449991865	-0.35705566	
1749449991866	-0.37109375	
1749449991867	-0.3904724	
1749449991868	-0.4045105	
1749449991869	-0.41038513	
1749449991870	-0.4172516	
1749449991871	-0.4295349	
1749449991872	-0.4384613	
1749449991873	-0.4360962	
1749449991874	-0.4259491	
1749449991875	-0.41374207	
1749449991876	-0.4006195	
1749449991877	-0.39108276	
1749449991878	-0.39505005	
1749449991879	-0.41099548	
1749449991880	-0.42015076	
1749449991881	-0.40664673	
1749449991882	-0.3742218	
1749449991883	-0.33668518	
1749449991884	-0.30715942	
1749449991885	-0.29777527	
1749449991886	-0.31929016	
1749449991887	-0.3656006	
1749449991888	-0.41007996	
1749449991889	-0.42816162	
1749449991890	-0.4181671	
1749449991891	-0.39466858	
1749449991892	-0.3705597	
1749449991893	-0.35476685	
1749449991894	-0.3555298	
1749449991895	-0.37139893	
1749449991896	-0.38536072	
1749449991897	-0.38345337	
1749449991898	-0.37147522	
1749449991899	-0.36224365	
1749449991900	-0.35743713	
1749449991901	-0.35194397	
1749449991902	-0.34606934	
1749449991903	-0.34210205	
1749449991904	-0.33599854	
1749449991905	-0.32608032	
1749449991906	-0.32234192	
1749449991907	-0.33538818	
1749449991908	-0.36064148	
1749449991909	-0.38467407	
1749449991910	-0.40122986	
1749449991911	-0.41107178	
1749449991912	-0.4096222	
1749449991913	-0.3918457	
1749449991914	-0.36499023	
1749449991915	-0.34309387	
1749449991916	-0.33081055	
1749449991917	-0.32569885	
1749449991918	-0.33058167	
1749449991919	-0.3490448	
1749449991920	-0.3717804	
1749449991921	-0.3830719	
1749449991922	-0.3791046	
1749449991923	-0.36849976	
1749449991924	-0.3578186	
1749449991925	-0.34835815	
1749449991926	-0.34622192	
1749449991927	-0.35888672	
1749449991928	-0.38093567	
1749449991929	-0.39787292	
1749449991930	-0.40382385	
1749449991931	-0.40405273	
1749449991932	-0.40122986	
1749449991933	-0.39169312	
1749449991934	-0.37849426	
1749449991935	-0.37208557	
1749449991936	-0.37528992	
1749449991937	-0.38017273	
1749449991938	-0.38269043	
1749449991939	-0.38604736	
1749449991940	-0.38856506	
1749449991941	-0.38139343	
1749449991942	-0.36453247	
1749449991943	-0.3504181	
1749449991944	-0.34744263	
1749449991945	-0.35194397	
1749449991946	-0.36094666	
1749449991947	-0.3781891	
1749449991948	-0.40138245	
1749449991949	-0.41870117	
1749449991950	-0.42289734	
1749449991951	-0.41786194	
1749449991952	-0.40664673	
1749449991953	-0.38589478	
1749449991954	-0.3591919	
1749449991955	-0.3427887	
1749449991956	-0.34751892	
1749449991957	-0.36628723	
1749449991958	-0.38490295	
1749449991959	-0.39382935	
1749449991960	-0.38513184	
1749449991961	-0.35072327	
1749449991962	-0.2984619	
1749449991963	-0.2559662	
1749449991964	-0.24757385	
1749449991965	-0.27320862	
1749449991966	-0.31661987	
1749449991967	-0.36109924	
1749449991968	-0.39108276	
1749449991969	-0.39390564	
1749449991970	-0.37322998	
1749449991971	-0.35255432	
1749449991972	-0.35247803	
1749449991973	-0.36987305	
1749449991974	-0.38894653	
1749449991975	-0.40039062	
1749449991976	-0.40222168	
1749449991977	-0.3931427	
1749449991978	-0.3780365	
1749449991979	-0.37109375	
1749449991980	-0.3794098	
1749449991981	-0.39100647	
1749449991982	-0.38986206	
1749449991983	-0.37651062	
1749449991984	-0.36254883	
1749449991985	-0.35438538	
1749449991986	-0.35354614	
1749449991987	-0.36468506	
1749449991988	-0.38749695	
1749449991989	-0.40802002	
1749449991990	-0.41252136	
1749449991991	-0.40351868	
1749449991992	-0.3917694	
1749449991993	-0.3792572	
1749449991994	-0.36338806	
1749449991995	-0.34988403	
1749449991996	-0.34805298	
1749449991997	-0.35606384	
1749449991998	-0.3656006	
1749449991999	-0.37368774	
1749449992000	-0.37956238	
1749449992001	-0.3740692	
1749449992002	-0.3491211	
1749449992003	-0.31532288	
1749449992004	-0.29457092	
1749449992005	-0.29701233	
1749449992006	-0.3174591	
1749449992007	-0.3475952	
1749449992008	-0.37773132	
1749449992009	-0.39268494	
1749449992010	-0.3819275	
1749449992011	-0.35591125	
1749449992012	-0.33706665	
1749449992013	-0.3352356	
1749449992014	-0.342865	
1749449992015	-0.35095215	
1749449992016	-0.35614014	
1749449992017	-0.3539276	
1749449992018	-0.3414917	
1749449992019	-0.32829285	
1749449992020	-0.32852173	
1749449992021	-0.3403473	
1749449992022	-0.34713745	
1749449992023	-0.3403473	
1749449992024	-0.32676697	
1749449992025	-0.31578064	
1749449992026	-0.31272888	
1749449992027	-0.3249359	
1749449992028	-0.3578949	
1749449992029	-0.40100098	
1749449992030	-0.43167114	
1749449992031	-0.43914795	
1749449992032	-0.4308319	
1749449992033	-0.4171753	
1749449992034	-0.40267944	
1749449992035	-0.393219	
1749449992036	-0.39733887	
1749449992037	-0.41244507	
1749449992038	-0.4220581	
1749449992039	-0.41519165	
1749449992040	-0.39413452	
1749449992041	-0.36354065	
1749449992042	-0.32409668	
1749449992043	-0.2835846	
1749449992044	-0.25985718	
1749449992045	-0.26184082	
1749449992046	-0.2796936	
1749449992047	-0.2999115	
1749449992048	-0.31730652	
1749449992049	-0.3275299	
1749449992050	-0.32440186	
1749449992051	-0.3112793	
1749449992052	-0.30426025	
1749449992053	-0.3126526	
1749449992054	-0.3289032	
1749449992055	-0.34126282	
1749449992056	-0.3479004	
1749449992057	-0.35064697	
1749449992058	-0.34576416	
1749449992059	-0.33370972	
1749449992060	-0.3237915	
1749449992061	-0.32157898	
1749449992062	-0.31860352	
1749449992063	-0.3074646	
1749449992064	-0.29464722	
1749449992065	-0.29060364	
1749449992066	-0.29548645	
1749449992067	-0.30563354	
1749449992068	-0.32348633	
1749449992069	-0.3488922	
1749449992070	-0.37094116	
1749449992071	-0.3804779	
1749449992072	-0.3819275	
1749449992073	-0.3830719	
1749449992074	-0.38139343	
1749449992075	-0.3730011	
1749449992076	-0.36506653	
1749449992077	-0.36842346	
1749449992078	-0.3818512	
1749449992079	-0.39642334	
1749449992080	-0.4068756	
1749449992081	-0.41023254	
1749449992082	-0.3996277	
1749449992083	-0.37384033	
1749449992084	-0.34973145	
1749449992085	-0.3491974	
1749449992086	-0.37635803	
1749449992087	-0.41664124	
1749449992088	-0.45463562	
1749449992089	-0.48042297	
1749449992090	-0.48477173	
1749449992091	-0.46592712	
1749449992092	-0.4397583	
1749449992093	-0.42686462	
1749449992094	-0.4309082	
1749449992095	-0.439682	
1749449992096	-0.44265747	
1749449992097	-0.43807983	
1749449992098	-0.42366028	
1749449992099	-0.39749146	
1749449992100	-0.36712646	
1749449992101	-0.3453827	
1749449992102	-0.333786	
1749449992103	-0.32333374	
1749449992104	-0.3111267	
1749449992105	-0.3047943	
1749449992106	-0.30776978	
1749449992107	-0.31524658	
1749449992108	-0.32440186	
1749449992109	-0.33843994	
1749449992110	-0.35354614	
1749449992111	-0.3580475	
1749449992112	-0.34858704	
1749449992113	-0.33485413	
1749449992114	-0.32302856	
1749449992115	-0.30921936	
1749449992116	-0.2936554	
1749449992117	-0.28579712	
1749449992118	-0.29060364	
1749449992119	-0.30181885	
1749449992120	-0.3150177	
1749449992121	-0.33287048	
1749449992122	-0.35247803	
1749449992123	-0.36216736	
1749449992124	-0.35751343	
1749449992125	-0.34851074	
1749449992126	-0.3451538	
1749449992127	-0.34683228	
1749449992128	-0.3517151	
1749449992129	-0.36445618	
1749449992130	-0.38452148	
1749449992131	-0.39863586	
1749449992132	-0.3968048	
1749449992133	-0.3842163	
1749449992134	-0.36979675	
1749449992135	-0.3553009	
1749449992136	-0.34347534	
1749449992137	-0.34339905	
1749449992138	-0.3565216	
1749449992139	-0.36773682	
1749449992140	-0.36270142	
1749449992141	-0.34431458	
1749449992142	-0.3238678	
1749449992143	-0.3075409	
1749449992144	-0.29899597	
1749449992145	-0.3048706	
1749449992146	-0.32478333	
1749449992147	-0.34675598	
1749449992148	-0.36064148	
1749449992149	-0.37124634	
1749449992150	-0.38734436	
1749449992151	-0.40359497	
1749449992152	-0.40649414	
1749449992153	-0.3919983	
1749449992154	-0.36521912	
1749449992155	-0.33302307	
1749449992156	-0.3063202	
1749449992157	-0.30197144	
1749449992158	-0.3265381	
1749449992159	-0.35964966	
1749449992160	-0.3705597	
1749449992161	-0.34812927	
1749449992162	-0.3048706	
1749449992163	-0.26237488	
1749449992164	-0.24108887	
1749449992165	-0.25558472	
1749449992166	-0.30395508	
1749449992167	-0.35957336	
1749449992168	-0.39115906	
1749449992169	-0.39100647	
1749449992170	-0.37574768	
1749449992171	-0.362854	
1749449992172	-0.35873413	
1749449992173	-0.36476135	
1749449992174	-0.37834167	
1749449992175	-0.38757324	
1749449992176	-0.38078308	
1749449992177	-0.3639984	
1749449992178	-0.35430908	
1749449992179	-0.3578949	
1749449992180	-0.36476135	
1749449992181	-0.3666687	
1749449992182	-0.36445618	
1749449992183	-0.35842896	
1749449992184	-0.34690857	
1749449992185	-0.33584595	
1749449992186	-0.33706665	
1749449992187	-0.35186768	
1749449992188	-0.3703308	
1749449992189	-0.38658142	
1749449992190	-0.4046631	
1749449992191	-0.42381287	
1749449992192	-0.4322815	
1749449992193	-0.42274475	
1749449992194	-0.40039062	
1749449992195	-0.37345886	
1749449992196	-0.34698486	
1749449992197	-0.33058167	
1749449992198	-0.33638	
1749449992199	-0.36102295	
1749449992200	-0.38085938	
1749449992201	-0.3766632	
1749449992202	-0.3503418	
1749449992203	-0.31654358	
1749449992204	-0.29037476	
1749449992205	-0.28511047	
1749449992206	-0.30960083	
1749449992207	-0.3540039	
1749449992208	-0.38986206	
1749449992209	-0.39642334	
1749449992210	-0.37895203	
1749449992211	-0.3564453	
1749449992212	-0.34179688	
1749449992213	-0.34095764	
1749449992214	-0.35736084	
1749449992215	-0.3842926	
1749449992216	-0.40145874	
1749449992217	-0.39619446	
1749449992218	-0.37651062	
1749449992219	-0.35705566	
1749449992220	-0.34179688	
1749449992221	-0.32958984	
1749449992222	-0.3251648	
1749449992223	-0.33081055	
1749449992224	-0.33744812	
1749449992225	-0.33638	
1749449992226	-0.33226013	
1749449992227	-0.33348083	
1749449992228	-0.34049988	
1749449992229	-0.3504181	
1749449992230	-0.36636353	
1749449992231	-0.3894043	
1749449992232	-0.4058075	
1749449992233	-0.40008545	
1749449992234	-0.37391663	
1749449992235	-0.34248352	
1749449992236	-0.31784058	
1749449992237	-0.3061676	
1749449992238	-0.313797	
1749449992239	-0.33721924	
1749449992240	-0.3539276	
1749449992241	-0.34118652	
1749449992242	-0.30136108	
1749449992243	-0.25650024	
1749449992244	-0.22750854	
1749449992245	-0.22605896	
1749449992246	-0.25627136	
1749449992247	-0.30944824	
1749449992248	-0.35865784	
1749449992249	-0.37742615	
1749449992250	-0.36437988	
1749449992251	-0.338974	
1749449992252	-0.31906128	
1749449992253	-0.31097412	
1749449992254	-0.3173828	
1749449992255	-0.33691406	
1749449992256	-0.3555298	
1749449992257	-0.35766602	
1749449992258	-0.3450775	
1749449992259	-0.33233643	
1749449992260	-0.3252411	
1749449992261	-0.31860352	
1749449992262	-0.3112793	
1749449992263	-0.3086853	
1749449992264	-0.31036377	
1749449992265	-0.31082153	
1749449992266	-0.31311035	
1749449992267	-0.32562256	
1749449992268	-0.3465271	
1749449992269	-0.36437988	
1749449992270	-0.37452698	
1749449992271	-0.38124084	
1749449992272	-0.38345337	
1749449992273	-0.3731537	
1749449992274	-0.35194397	
1749449992275	-0.3327942	
1749449992276	-0.32463074	
1749449992277	-0.3263855	
1749449992278	-0.3376007	
1749449992279	-0.35820007	
1749449992280	-0.3767395	
1749449992281	-0.37345886	
1749449992282	-0.34439087	
1749449992283	-0.30685425	
1749449992284	-0.27938843	
1749449992285	-0.26985168	
1749449992286	-0.28045654	
1749449992287	-0.31021118	
1749449992288	-0.34561157	
1749449992289	-0.36491394	
1749449992290	-0.36102295	
1749449992291	-0.34713745	
1749449992292	-0.3378296	
1749449992293	-0.3353119	
1749449992294	-0.33836365	
1749449992295	-0.3488922	
1749449992296	-0.3617096	
1749449992297	-0.36361694	
1749449992298	-0.35095215	
1749449992299	-0.33561707	
1749449992300	-0.3264618	
1749449992301	-0.31974792	
1749449992302	-0.3126526	
1749449992303	-0.31044006	
1749449992304	-0.3149414	
1749449992305	-0.3188324	
1749449992306	-0.3200531	
1749449992307	-0.32798767	
1749449992308	-0.3475952	
1749449992309	-0.37025452	
1749449992310	-0.3868103	
1749449992311	-0.39627075	
1749449992312	-0.3968811	
1749449992313	-0.38032532	
1749449992314	-0.34599304	
1749449992315	-0.30914307	
1749449992316	-0.28526306	
1749449992317	-0.27557373	
1749449992318	-0.27549744	
1749449992319	-0.28579712	
1749449992320	-0.3035736	
1749449992321	-0.31677246	
1749449992322	-0.3189087	
1749449992323	-0.31845093	
1749449992324	-0.32341003	
1749449992325	-0.3290558	
1749449992326	-0.3289032	
1749449992327	-0.3277588	
1749449992328	-0.3325653	
1749449992329	-0.34179688	
1749449992330	-0.35217285	
1749449992331	-0.36636353	
1749449992332	-0.3831482	
1749449992333	-0.39108276	
1749449992334	-0.38223267	
1749449992335	-0.36636353	
1749449992336	-0.3591156	
1749449992337	-0.36247253	
1749449992338	-0.36857605	
1749449992339	-0.3730011	
1749449992340	-0.37216187	
1749449992341	-0.3580475	
1749449992342	-0.32974243	
1749449992343	-0.3036499	
1749449992344	-0.29678345	
1749449992345	-0.3073883	
1749449992346	-0.32226562	
1749449992347	-0.33622742	
1749449992348	-0.3516388	
1749449992349	-0.36773682	
1749449992350	-0.38368225	
1749449992351	-0.40428162	
1749449992352	-0.4297638	
1749449992353	-0.44532776	
1749449992354	-0.43563843	
1749449992355	-0.4068756	
1749449992356	-0.38200378	
1749449992357	-0.37612915	
1749449992358	-0.38841248	
1749449992359	-0.40977478	
1749449992360	-0.4245758	
1749449992361	-0.4120636	
1749449992362	-0.3643036	
1749449992363	-0.3048706	
1749449992364	-0.27183533	
1749449992365	-0.2824402	
1749449992366	-0.32424927	
1749449992367	-0.37261963	
1749449992368	-0.40496826	
1749449992369	-0.40519714	
1749449992370	-0.37460327	
1749449992371	-0.33790588	
1749449992372	-0.32409668	
1749449992373	-0.33744812	
1749449992374	-0.35743713	
1749449992375	-0.36499023	
1749449992376	-0.35713196	
1749449992377	-0.3388977	
1749449992378	-0.3173828	
1749449992379	-0.30464172	
1749449992380	-0.3087616	
1749449992381	-0.31982422	
1749449992382	-0.3186798	
1749449992383	-0.3025055	
1749449992384	-0.28755188	
1749449992385	-0.28808594	
1749449992386	-0.30471802	
1749449992387	-0.33340454	
1749449992388	-0.36956787	
1749449992389	-0.4008484	
1749449992390	-0.41297913	
1749449992391	-0.4071808	
1749449992392	-0.3981018	
1749449992393	-0.393219	
1749449992394	-0.38642883	
1749449992395	-0.37460327	
1749449992396	-0.365448	
1749449992397	-0.36499023	
1749449992398	-0.369339	
1749449992399	-0.37353516	
1749449992400	-0.37521362	
1749449992401	-0.36705017	
1749449992402	-0.33866882	
1749449992403	-0.2959442	
1749449992404	-0.2646637	
1749449992405	-0.26519775	
1749449992406	-0.29441833	
1749449992407	-0.335083	
1749449992408	-0.37124634	
1749449992409	-0.38887024	
1749449992410	-0.37879944	
1749449992411	-0.35064697	
1749449992412	-0.32981873	
1749449992413	-0.33226013	
1749449992414	-0.34965515	
1749449992415	-0.36361694	
1749449992416	-0.36521912	
1749449992417	-0.35461426	
1749449992418	-0.33432007	
1749449992419	-0.3136444	
1749449992420	-0.30822754	
1749449992421	-0.32203674	
1749449992422	-0.3391266	
1749449992423	-0.34210205	
1749449992424	-0.33180237	
1749449992425	-0.31959534	
1749449992426	-0.3123474	
1749449992427	-0.3137207	
1749449992428	-0.32974243	
1749449992429	-0.3591156	
1749449992430	-0.38589478	
1749449992431	-0.39535522	
1749449992432	-0.39001465	
1749449992433	-0.38009644	
1749449992434	-0.368042	
1749449992435	-0.35339355	
1749449992436	-0.3440094	
1749449992437	-0.34851074	
1749449992438	-0.36186218	
1749449992439	-0.37109375	
1749449992440	-0.36994934	
1749449992441	-0.35728455	
1749449992442	-0.3299713	
1749449992443	-0.29075623	
1749449992444	-0.2594757	
1749449992445	-0.2584076	
1749449992446	-0.28877258	
1749449992447	-0.33164978	
1749449992448	-0.36857605	
1749449992449	-0.38909912	
1749449992450	-0.38726807	
1749449992451	-0.36613464	
1749449992452	-0.34484863	
1749449992453	-0.34362793	
1749449992454	-0.3617859	
1749449992455	-0.3816223	
1749449992456	-0.39001465	
1749449992457	-0.3868866	
1749449992458	-0.37490845	
1749449992459	-0.35606384	
1749449992460	-0.338974	
1749449992461	-0.3338623	
1749449992462	-0.33744812	
1749449992463	-0.33676147	
1749449992464	-0.3290558	
1749449992465	-0.3240204	
1749449992466	-0.32859802	
1749449992467	-0.34057617	
1749449992468	-0.3580475	
1749449992469	-0.38269043	
1749449992470	-0.40733337	
1749449992471	-0.41664124	
1749449992472	-0.4045105	
1749449992473	-0.38017273	
1749449992474	-0.35354614	
1749449992475	-0.3289032	
1749449992476	-0.31318665	
1749449992477	-0.31715393	
1749449992478	-0.33866882	
1749449992479	-0.35766602	
1749449992480	-0.3565216	
1749449992481	-0.33477783	
1749449992482	-0.3011322	
1749449992483	-0.2659607	
1749449992484	-0.24490355	
1749449992485	-0.25505066	
1749449992486	-0.29525757	
1749449992487	-0.3401184	
1749449992488	-0.3640747	
1749449992489	-0.36209106	
1749449992490	-0.34423828	
1749449992491	-0.32234192	
1749449992492	-0.30944824	
1749449992493	-0.31791687	
1749449992494	-0.34454346	
1749449992495	-0.36743164	
1749449992496	-0.3691864	
1749449992497	-0.35591125	
1749449992498	-0.34378052	
1749449992499	-0.33958435	
1749449992500	-0.3414917	
1749449992501	-0.3476715	
1749449992502	-0.35240173	
1749449992503	-0.34362793	
1749449992504	-0.31944275	
1749449992505	-0.2972412	
1749449992506	-0.29640198	
1749449992507	-0.31860352	
1749449992508	-0.35133362	
1749449992509	-0.38452148	
1749449992510	-0.41099548	
1749449992511	-0.42007446	
1749449992512	-0.4071045	
1749449992513	-0.38337708	
1749449992514	-0.36346436	
1749449992515	-0.34835815	
1749449992516	-0.33210754	
1749449992517	-0.317688	
1749449992518	-0.31211853	
1749449992519	-0.31349182	
1749449992520	-0.31562805	
1749449992521	-0.31974792	
1749449992522	-0.3287506	
1749449992523	-0.3365326	
1749449992524	-0.33493042	
1749449992525	-0.32798767	
1749449992526	-0.32699585	
1749449992527	-0.333786	
1749449992528	-0.34179688	
